tau [fm]		lambda [fm^-1]
0.25		3.0406
0.26		3.0526		
0.27		3.061		
0.28		3.0649		
0.29		3.0651		
0.3		3.0624		
0.31		3.0575		
0.32		3.0509		
0.33		3.0429		
0.34		3.0341		
0.35		3.0245		
0.36		3.0146		
0.37		3.0045		
0.38		2.9942		
0.39		2.9839		
0.4		2.9737		
0.41		2.9636		
0.42		2.9536		
0.43		2.9438		
0.44		2.9342		
0.45		2.9247		
0.46		2.9154		
0.47		2.9062		
0.48		2.8972		
0.49		2.8882		
0.5		2.8793		
0.51		2.8705		
0.52		2.8618		
0.53		2.8531		
0.54		2.8444		
0.55		2.8357		
0.56		2.8269		
0.57		2.8182		
0.58		2.8094		
0.59		2.8005		
0.6		2.7916		
0.61		2.7827		
0.62		2.7736		
0.63		2.7645		
0.64		2.7554		
0.65		2.7461		
0.66		2.7368		
0.67		2.7274		
0.68		2.7179		
0.69		2.7083		
0.7		2.6987		
0.71		2.6891		
0.72		2.6793		
0.73		2.6695		
0.74		2.6597		
0.75		2.6498		
0.76		2.6399		
0.77		2.6299		
0.78		2.62		
0.79		2.61		
0.8		2.5999		
0.81		2.5899		
0.82		2.5799		
0.83		2.5699		
0.84		2.5598		
0.85		2.5498		
0.86		2.5399		
0.87		2.5299		
0.88		2.5199		
0.89		2.51		
0.9		2.5002		
0.91		2.4903		
0.92		2.4805		
0.93		2.4708		
0.94		2.4611		
0.95		2.4515		
0.96		2.4419		
0.97		2.4324		
0.98		2.4229		
0.99		2.4135		
1		2.4042		
1.01		2.3949		
1.02		2.3857		
1.03		2.3766		
1.04		2.3675		
1.05		2.3586		
1.06		2.3497		
1.07		2.3408		
1.08		2.3321		
1.09		2.3234		
1.1		2.3148		
1.11		2.3063		
1.12		2.2979		
1.13		2.2895		
1.14		2.2812		
1.15		2.2731		
1.16		2.2649		
1.17		2.2569		
1.18		2.249		
1.19		2.2411		
1.2		2.2333		
1.21		2.2256		
1.22		2.2179		
1.23		2.2104		
1.24		2.2029		
1.25		2.1955		
1.26		2.1882		
1.27		2.1809		
1.28		2.1738		
1.29		2.1667		
1.3		2.1597		
1.31		2.1527		
1.32		2.1459		
1.33		2.1391		
1.34		2.1323		
1.35		2.1257		
1.36		2.1191		
1.37		2.1126		
1.38		2.1061		
1.39		2.0998		
1.4		2.0935		
1.41		2.0872		
1.42		2.0811		
1.43		2.075		
1.44		2.0689		
1.45		2.0629		
1.46		2.057		
1.47		2.0512		
1.48		2.0454		
1.49		2.0397		
1.5		2.034		
1.51		2.0284		
1.52		2.0228		
1.53		2.0174		
1.54		2.0119		
1.55		2.0066		
1.56		2.0012		
1.57		1.996		
1.58		1.9908		
1.59		1.9856		
1.6		1.9805		
1.61		1.9755		
1.62		1.9705		
1.63		1.9655		
1.64		1.9606		
1.65		1.9558		
1.66		1.951		
1.67		1.9462		
1.68		1.9415		
1.69		1.9369		
1.7		1.9322		
1.71		1.9277		
1.72		1.9232		
1.73		1.9187		
1.74		1.9143		
1.75		1.9099		
1.76		1.9055		
1.77		1.9012		
1.78		1.897		
1.79		1.8927		
1.8		1.8886		
1.81		1.8844		
1.82		1.8803		
1.83		1.8763		
1.84		1.8722		
1.85		1.8683		
1.86		1.8643		
1.87		1.8604		
1.88		1.8565		
1.89		1.8527		
1.9		1.8489		
1.91		1.8451		
1.92		1.8414		
1.93		1.8377		
1.94		1.834		
1.95		1.8304		
1.96		1.8268		
1.97		1.8233		
1.98		1.8197		
1.99		1.8162		
2		1.8127		
2.01		1.8093		
2.02		1.8059		
2.03		1.8025		
2.04		1.7992		
2.05		1.7959		
2.06		1.7926		
2.07		1.7893		
2.08		1.7861		
2.09		1.7829		
2.1		1.7797		
2.11		1.7765		
2.12		1.7734		
2.13		1.7703		
2.14		1.7672		
2.15		1.7642		
2.16		1.7612		
2.17		1.7582		
2.18		1.7552		
2.19		1.7522		
2.2		1.7493		
2.21		1.7464		
2.22		1.7435		
2.23		1.7407		
2.24		1.7379		
2.25		1.735		
2.26		1.7323		
2.27		1.7295		
2.28		1.7268		
2.29		1.724		
2.3		1.7213		
2.31		1.7187		
2.32		1.716		
2.33		1.7134		
2.34		1.7108		
2.35		1.7082		
2.36		1.7056		
2.37		1.703		
2.38		1.7005		
2.39		1.698		
2.4		1.6955		
2.41		1.693		
2.42		1.6906		
2.43		1.6881		
2.44		1.6857		
2.45		1.6833		
2.46		1.6809		
2.47		1.6785		
2.48		1.6762		
2.49		1.6738		
2.5		1.6715		
2.51		1.6692		
2.52		1.6669		
2.53		1.6647		
2.54		1.6624		
2.55		1.6602		
2.56		1.658		
2.57		1.6558		
2.58		1.6536		
2.59		1.6514		
2.6		1.6492		
2.61		1.6471		
2.62		1.645		
2.63		1.6429		
2.64		1.6408		
2.65		1.6387		
2.66		1.6366		
2.67		1.6345		
2.68		1.6325		
2.69		1.6305		
2.7		1.6285		
2.71		1.6265		
2.72		1.6245		
2.73		1.6225		
2.74		1.6205		
2.75		1.6186		
2.76		1.6166		
2.77		1.6147		
2.78		1.6128		
2.79		1.6109		
2.8		1.609		
2.81		1.6071		
2.82		1.6053		
2.83		1.6034		
2.84		1.6016		
2.85		1.5998		
2.86		1.5979		
2.87		1.5961		
2.88		1.5943		
2.89		1.5926		
2.9		1.5908		
2.91		1.589		
2.92		1.5873		
2.93		1.5855		
2.94		1.5838		
2.95		1.5821		
2.96		1.5804		
2.97		1.5787		
2.98		1.577		
2.99		1.5753		
3		1.5737		
3.01		1.572		
3.02		1.5704		
3.03		1.5687		
3.04		1.5671		
3.05		1.5655		
3.06		1.5639		
3.07		1.5623		
3.08		1.5607		
3.09		1.5591		
3.1		1.5575		
3.11		1.556		
3.12		1.5544		
3.13		1.5529		
3.14		1.5513		
3.15		1.5498		
3.16		1.5483		
3.17		1.5468		
3.18		1.5453		
3.19		1.5438		
3.2		1.5423		
3.21		1.5408		
3.22		1.5393		
3.23		1.5379		
3.24		1.5364		
3.25		1.535		
3.26		1.5335		
3.27		1.5321		
3.28		1.5307		
3.29		1.5293		
3.3		1.5279		
3.31		1.5265		
3.32		1.5251		
3.33		1.5237		
3.34		1.5223		
3.35		1.5209		
3.36		1.5196		
3.37		1.5182		
3.38		1.5169		
3.39		1.5155		
3.4		1.5142		
3.41		1.5129		
3.42		1.5115		
3.43		1.5102		
3.44		1.5089		
3.45		1.5076		
3.46		1.5063		
3.47		1.505		
3.48		1.5037		
3.49		1.5025		
3.5		1.5012		
3.51		1.4999		
3.52		1.4987		
3.53		1.4974		
3.54		1.4962		
3.55		1.4949		
3.56		1.4937		
3.57		1.4925		
3.58		1.4913		
3.59		1.49		
3.6		1.4888		
3.61		1.4876		
3.62		1.4864		
3.63		1.4852		
3.64		1.484		
3.65		1.4829		
3.66		1.4817		
3.67		1.4805		
3.68		1.4794		
3.69		1.4782		
3.7		1.477		
3.71		1.4759		
3.72		1.4747		
3.73		1.4736		
3.74		1.4725		
3.75		1.4713		
3.76		1.4702		
3.77		1.4691		
3.78		1.468		
3.79		1.4669		
3.8		1.4658		
3.81		1.4647		
3.82		1.4636		
3.83		1.4625		
3.84		1.4614		
3.85		1.4603		
3.86		1.4592		
3.87		1.4582		
3.88		1.4571		
3.89		1.4561		
3.9		1.455		
3.91		1.4539		
3.92		1.4529		
3.93		1.4519		
3.94		1.4508		
3.95		1.4498		
3.96		1.4487		
3.97		1.4477		
3.98		1.4467		
3.99		1.4457		
4		1.4447		
4.01		1.4437		
4.02		1.4427		
4.03		1.4417		
4.04		1.4407		
4.05		1.4397		
4.06		1.4387		
4.07		1.4377		
4.08		1.4367		
4.09		1.4357		
4.1		1.4348		
4.11		1.4338		
4.12		1.4328		
4.13		1.4319		
4.14		1.4309		
4.15		1.43		
4.16		1.429		
4.17		1.4281		
4.18		1.4271		
4.19		1.4262		
4.2		1.4252		
4.21		1.4243		
4.22		1.4234		
4.23		1.4225		
4.24		1.4215		
4.25		1.4206		
4.26		1.4197		
4.27		1.4188		
4.28		1.4179		
4.29		1.417		
4.3		1.4161		
4.31		1.4152		
4.32		1.4143		
4.33		1.4134		
4.34		1.4125		
4.35		1.4116		
4.36		1.4108		
4.37		1.4099		
4.38		1.409		
4.39		1.4081		
4.4		1.4073		
4.41		1.4064		
4.42		1.4055		
4.43		1.4047		
4.44		1.4038		
4.45		1.403		
4.46		1.4021		
4.47		1.4013		
4.48		1.4004		
4.49		1.3996		
4.5		1.3988		
4.51		1.3979		
4.52		1.3971		
4.53		1.3963		
4.54		1.3955		
4.55		1.3946		
4.56		1.3938		
4.57		1.393		
4.58		1.3922		
4.59		1.3914		
4.6		1.3906		
4.61		1.3898		
4.62		1.389		
4.63		1.3882		
4.64		1.3874		
4.65		1.3866		
4.66		1.3858		
4.67		1.385		
4.68		1.3842		
4.69		1.3834		
4.7		1.3826		
4.71		1.3819		
4.72		1.3811		
4.73		1.3803		
4.74		1.3795		
4.75		1.3788		
4.76		1.378		
4.77		1.3772		
4.78		1.3765		
4.79		1.3757		
4.8		1.375		
4.81		1.3742		
4.82		1.3735		
4.83		1.3727		
4.84		1.372		
4.85		1.3712		
4.86		1.3705		
4.87		1.3698		
4.88		1.369		
4.89		1.3683		
4.9		1.3676		
4.91		1.3668		
4.92		1.3661		
4.93		1.3654		
4.94		1.3647		
4.95		1.3639		
4.96		1.3632		
4.97		1.3625		
4.98		1.3618		
4.99		1.3611		
5		1.3604		
5.01		1.3597		
5.02		1.359		
5.03		1.3583		
5.04		1.3576		
5.05		1.3569		
5.06		1.3562		
5.07		1.3555		
5.08		1.3548		
5.09		1.3541		
5.1		1.3534		
5.11		1.3527		
5.12		1.3521		
5.13		1.3514		
5.14		1.3507		
5.15		1.35		
5.16		1.3494		
5.17		1.3487		
5.18		1.348		
5.19		1.3473		
5.2		1.3467		
5.21		1.346		
5.22		1.3454		
5.23		1.3447		
5.24		1.344		
5.25		1.3434		
5.26		1.3427		
5.27		1.3421		
5.28		1.3414		
5.29		1.3408		
5.3		1.3401		
5.31		1.3395		
5.32		1.3388		
5.33		1.3382		
5.34		1.3376		
5.35		1.3369		
5.36		1.3363		
5.37		1.3357		
5.38		1.335		
5.39		1.3344		
5.4		1.3338		
5.41		1.3331		
5.42		1.3325		
5.43		1.3319		
5.44		1.3313		
5.45		1.3307		
5.46		1.33		
5.47		1.3294		
5.48		1.3288		
5.49		1.3282		
5.5		1.3276		
5.51		1.327		
5.52		1.3264		
5.53		1.3258		
5.54		1.3252		
5.55		1.3246		
5.56		1.324		
5.57		1.3234		
5.58		1.3228		
5.59		1.3222		
5.6		1.3216		
5.61		1.321		
5.62		1.3204		
5.63		1.3198		
5.64		1.3192		
5.65		1.3187		
5.66		1.3181		
5.67		1.3175		
5.68		1.3169		
5.69		1.3163		
5.7		1.3158		
5.71		1.3152		
5.72		1.3146		
5.73		1.314		
5.74		1.3135		
5.75		1.3129		
5.76		1.3123		
5.77		1.3118		
5.78		1.3112		
5.79		1.3106		
5.8		1.3101		
5.81		1.3095		
5.82		1.309		
5.83		1.3084		
5.84		1.3079		
5.85		1.3073		
5.86		1.3067		
5.87		1.3062		
5.88		1.3056		
5.89		1.3051		
5.9		1.3046		
5.91		1.304		
5.92		1.3035		
5.93		1.3029		
5.94		1.3024		
5.95		1.3018		
5.96		1.3013		
5.97		1.3008		
5.98		1.3002		
5.99		1.2997		
6		1.2992		
6.01		1.2986		
6.02		1.2981		
6.03		1.2976		
6.04		1.2971		
6.05		1.2965		
6.06		1.296		
6.07		1.2955		
6.08		1.295		
6.09		1.2944		
6.1		1.2939		
6.11		1.2934		
6.12		1.2929		
6.13		1.2924		
6.14		1.2919		
6.15		1.2914		
6.16		1.2908		
6.17		1.2903		
6.18		1.2898		
6.19		1.2893		
6.2		1.2888		
6.21		1.2883		
6.22		1.2878		
6.23		1.2873		
6.24		1.2868		
6.25		1.2863		
6.26		1.2858		
6.27		1.2853		
6.28		1.2848		
6.29		1.2843		
6.3		1.2838		
6.31		1.2834		
6.32		1.2829		
6.33		1.2824		
6.34		1.2819		
6.35		1.2814		
6.36		1.2809		
6.37		1.2804		
6.38		1.2799		
6.39		1.2795		
6.4		1.279		
6.41		1.2785		
6.42		1.278		
6.43		1.2776		
6.44		1.2771		
6.45		1.2766		
6.46		1.2761		
6.47		1.2757		
6.48		1.2752		
6.49		1.2747		
6.5		1.2743		
6.51		1.2738		
6.52		1.2733		
6.53		1.2729		
6.54		1.2724		
6.55		1.2719		
6.56		1.2715		
6.57		1.271		
6.58		1.2706		
6.59		1.2701		
6.6		1.2696		
6.61		1.2692		
6.62		1.2687		
6.63		1.2683		
6.64		1.2678		
6.65		1.2674		
6.66		1.2669		
6.67		1.2665		
6.68		1.266		
6.69		1.2656		
6.7		1.2651		
6.71		1.2647		
6.72		1.2642		
6.73		1.2638		
6.74		1.2634		
6.75		1.2629		
6.76		1.2625		
6.77		1.262		
6.78		1.2616		
6.79		1.2612		
6.8		1.2607		
6.81		1.2603		
6.82		1.2599		
6.83		1.2594		
6.84		1.259		
6.85		1.2586		
6.86		1.2581		
6.87		1.2577		
6.88		1.2573		
6.89		1.2569		
6.9		1.2564		
6.91		1.256		
6.92		1.2556		
6.93		1.2552		
6.94		1.2548		
6.95		1.2543		
6.96		1.2539		
6.97		1.2535		
6.98		1.2531		
6.99		1.2527		
7		1.2522		
7.01		1.2518		
7.02		1.2514		
7.03		1.251		
7.04		1.2506		
7.05		1.2502		
7.06		1.2498		
7.07		1.2494		
7.08		1.249		
7.09		1.2486		
7.1		1.2482		
7.11		1.2478		
7.12		1.2473		
7.13		1.2469		
7.14		1.2465		
7.15		1.2461		
7.16		1.2457		
7.17		1.2453		
7.18		1.2449		
7.19		1.2446		
7.2		1.2442		
7.21		1.2438		
7.22		1.2434		
7.23		1.243		
7.24		1.2426		
7.25		1.2422		
7.26		1.2418		
7.27		1.2414		
7.28		1.241		
7.29		1.2406		
7.3		1.2402		
7.31		1.2399		
7.32		1.2395		
7.33		1.2391		
7.34		1.2387		
7.35		1.2383		
7.36		1.2379		
7.37		1.2376		
7.38		1.2372		
7.39		1.2368		
7.4		1.2364		
7.41		1.2361		
7.42		1.2357		
7.43		1.2353		
7.44		1.2349		
7.45		1.2346		
7.46		1.2342		
7.47		1.2338		
7.48		1.2334		
7.49		1.2331		
7.5		1.2327		
7.51		1.2323		
7.52		1.232		
7.53		1.2316		
7.54		1.2312		
7.55		1.2309		
7.56		1.2305		
7.57		1.2301		
7.58		1.2298		
7.59		1.2294		
7.6		1.2291		
7.61		1.2287		
7.62		1.2283		
7.63		1.228		
7.64		1.2276		
7.65		1.2273		
7.66		1.2269		
7.67		1.2265		
7.68		1.2262		
7.69		1.2258		
7.7		1.2255		
7.71		1.2251		
7.72		1.2248		
7.73		1.2244		
7.74		1.2241		
7.75		1.2237		
7.76		1.2234		
7.77		1.223		
7.78		1.2227		
7.79		1.2223		
7.8		1.222		
7.81		1.2217		
7.82		1.2213		
7.83		1.221		
7.84		1.2206		
7.85		1.2203		
7.86		1.2199		
7.87		1.2196		
7.88		1.2193		
7.89		1.2189		
7.9		1.2186		
7.91		1.2183		
7.92		1.2179		
7.93		1.2176		
7.94		1.2172		
7.95		1.2169		
7.96		1.2166		
7.97		1.2162		
7.98		1.2159		
7.99		1.2156		
8		1.2153		
8.01		1.2149		
8.02		1.2146		
8.03		1.2143		
8.04		1.2139		
8.05		1.2136		
8.06		1.2133		
8.07		1.213		
8.08		1.2126		
8.09		1.2123		
8.1		1.212		
8.11		1.2117		
8.12		1.2113		
8.13		1.211		
8.14		1.2107		
8.15		1.2104		
8.16		1.2101		
8.17		1.2097		
8.18		1.2094		
8.19		1.2091		
8.2		1.2088		
8.21		1.2085		
8.22		1.2082		
8.23		1.2079		
8.24		1.2075		
8.25		1.2072		
8.26		1.2069		
8.27		1.2066		
8.28		1.2063		
8.29		1.206		
8.3		1.2057		
8.31		1.2054		
8.32		1.2051		
8.33		1.2048		
8.34		1.2044		
8.35		1.2041		
8.36		1.2038		
8.37		1.2035		
8.38		1.2032		
8.39		1.2029		
8.4		1.2026		
8.41		1.2023		
8.42		1.202		
8.43		1.2017		
8.44		1.2014		
8.45		1.2011		
8.46		1.2008		
8.47		1.2005		
8.48		1.2002		
8.49		1.1999		
8.5		1.1996		
8.51		1.1993		
8.52		1.199		
8.53		1.1987		
8.54		1.1984		
8.55		1.1982		
8.56		1.1979		
8.57		1.1976		
8.58		1.1973		
8.59		1.197		
8.6		1.1967		
8.61		1.1964		
8.62		1.1961		
8.63		1.1958		
8.64		1.1955		
8.65		1.1953		
8.66		1.195		
8.67		1.1947		
8.68		1.1944		
8.69		1.1941		
8.7		1.1938		
8.71		1.1935		
8.72		1.1933		
8.73		1.193		
8.74		1.1927		
8.75		1.1924		
8.76		1.1921		
8.77		1.1919		
8.78		1.1916		
8.79		1.1913		
8.8		1.191		
8.81		1.1907		
8.82		1.1905		
8.83		1.1902		
8.84		1.1899		
8.85		1.1896		
8.86		1.1894		
8.87		1.1891		
8.88		1.1888		
8.89		1.1885		
8.9		1.1883		
8.91		1.188		
8.92		1.1877		
8.93		1.1874		
8.94		1.1872		
8.95		1.1869		
8.96		1.1866		
8.97		1.1864		
8.98		1.1861		
8.99		1.1858		
9		1.1856		
9.01		1.1853		
9.02		1.185		
9.03		1.1848		
9.04		1.1845		
9.05		1.1842		
9.06		1.184		
9.07		1.1837		
9.08		1.1835		
9.09		1.1832		
9.1		1.1829		
9.11		1.1827		
9.12		1.1824		
9.13		1.1821		
9.14		1.1819		
9.15		1.1816		
9.16		1.1814		
9.17		1.1811		
9.18		1.1809		
9.19		1.1806		
9.2		1.1803		
9.21		1.1801		
9.22		1.1798		
9.23		1.1796		
9.24		1.1793		
9.25		1.1791		
9.26		1.1788		
9.27		1.1786		
9.28		1.1783		
9.29		1.1781		
9.3		1.1778		
9.31		1.1776		
9.32		1.1773		
9.33		1.1771		
9.34		1.1768		
9.35		1.1766		
9.36		1.1763		
9.37		1.1761		
9.38		1.1758		
9.39		1.1756		
9.4		1.1753		
9.41		1.1751		
9.42		1.1748		
9.43		1.1746		
9.44		1.1743		
9.45		1.1741		
9.46		1.1739		
9.47		1.1736		
9.48		1.1734		
9.49		1.1731		
9.5		1.1729		
9.51		1.1726		
9.52		1.1724		
9.53		1.1722		
9.54		1.1719		
9.55		1.1717		
9.56		1.1714		
9.57		1.1712		
9.58		1.171		
9.59		1.1707		
9.6		1.1705		
9.61		1.1703		
9.62		1.17		
9.63		1.1698		
9.64		1.1696		
9.65		1.1693		
9.66		1.1691		
9.67		1.1689		
9.68		1.1686		
9.69		1.1684		
9.7		1.1682		
9.71		1.1679		
9.72		1.1677		
9.73		1.1675		
9.74		1.1672		
9.75		1.167		
9.76		1.1668		
9.77		1.1665		
9.78		1.1663		
9.79		1.1661		
9.8		1.1659		
9.81		1.1656		
9.82		1.1654		
9.83		1.1652		
9.84		1.165		
9.85		1.1647		
9.86		1.1645		
9.87		1.1643		
9.88		1.1641		
9.89		1.1638		
9.9		1.1636		
9.91		1.1634		
9.92		1.1632		
9.93		1.1629		
9.94		1.1627		
9.95		1.1625		
9.96		1.1623		
9.97		1.1621		
9.98		1.1618		
9.99		1.1616		
10		1.1614		
10.01		1.1612		
10.02		1.161		
10.03		1.1607		
10.04		1.1605		
10.05		1.1603		
10.06		1.1601		
10.07		1.1599		
10.08		1.1597		
10.09		1.1594		
10.1		1.1592		
10.11		1.159		
10.12		1.1588		
10.13		1.1586		
10.14		1.1584		
10.15		1.1582		
10.16		1.158		
10.17		1.1577		
10.18		1.1575		
10.19		1.1573		
10.2		1.1571		
10.21		1.1569		
10.22		1.1567		
10.23		1.1565		
10.24		1.1563		
10.25		1.1561		
10.26		1.1558		
10.27		1.1556		
10.28		1.1554		
10.29		1.1552		
10.3		1.155		
10.31		1.1548		
10.32		1.1546		
10.33		1.1544		
10.34		1.1542		
10.35		1.154		
10.36		1.1538		
10.37		1.1536		
10.38		1.1534		
10.39		1.1532		
10.4		1.153		
10.41		1.1528		
10.42		1.1526		
10.43		1.1524		
10.44		1.1522		
10.45		1.152		
10.46		1.1518		
10.47		1.1516		
10.48		1.1514		
10.49		1.1512		
10.5		1.151		
10.51		1.1508		
10.52		1.1506		
10.53		1.1504		
10.54		1.1502		
10.55		1.15		
10.56		1.1498		
10.57		1.1496		
10.58		1.1494		
10.59		1.1492		
10.6		1.149		
10.61		1.1488		
10.62		1.1486		
10.63		1.1484		
10.64		1.1482		
10.65		1.148		
10.66		1.1478		
10.67		1.1476		
10.68		1.1474		
10.69		1.1472		
10.7		1.1471		
10.71		1.1469		
10.72		1.1467		
10.73		1.1465		
10.74		1.1463		
10.75		1.1461		
10.76		1.1459		
10.77		1.1457		
10.78		1.1455		
10.79		1.1453		
10.8		1.1452		
10.81		1.145		
10.82		1.1448		
10.83		1.1446		
10.84		1.1444		
10.85		1.1442		
10.86		1.144		
10.87		1.1438		
10.88		1.1437		
10.89		1.1435		
10.9		1.1433		
10.91		1.1431		
10.92		1.1429		
10.93		1.1427		
10.94		1.1425		
10.95		1.1424		
10.96		1.1422		
10.97		1.142		
10.98		1.1418		
10.99		1.1416		
11		1.1415		
11.01		1.1413		
11.02		1.1411		
11.03		1.1409		
11.04		1.1407		
11.05		1.1405		
11.06		1.1404		
11.07		1.1402		
11.08		1.14		
11.09		1.1398		
11.1		1.1396		
11.11		1.1395		
11.12		1.1393		
11.13		1.1391		
11.14		1.1389		
11.15		1.1388		
11.16		1.1386		
11.17		1.1384		
11.18		1.1382		
11.19		1.1381		
11.2		1.1379		
11.21		1.1377		
11.22		1.1375		
11.23		1.1374		
11.24		1.1372		
11.25		1.137		
11.26		1.1368		
11.27		1.1367		
11.28		1.1365		
11.29		1.1363		
11.3		1.1361		
11.31		1.136		
11.32		1.1358		
11.33		1.1356		
11.34		1.1355		
11.35		1.1353		
11.36		1.1351		
11.37		1.1349		
11.38		1.1348		
11.39		1.1346		
11.4		1.1344		
11.41		1.1343		
11.42		1.1341		
11.43		1.1339		
11.44		1.1338		
11.45		1.1336		
11.46		1.1334		
11.47		1.1333		
11.48		1.1331		
11.49		1.1329		
11.5		1.1327		
11.51		1.1326		
11.52		1.1324		
11.53		1.1323		
11.54		1.1321		
11.55		1.1319		
11.56		1.1318		
11.57		1.1316		
11.58		1.1314		
11.59		1.1313		
11.6		1.1311		
11.61		1.1309		
11.62		1.1308		
11.63		1.1306		
11.64		1.1304		
11.65		1.1303		
11.66		1.1301		
11.67		1.13		
11.68		1.1298		
11.69		1.1296		
11.7		1.1295		
11.71		1.1293		
11.72		1.1292		
11.73		1.129		
11.74		1.1288		
11.75		1.1287		
11.76		1.1285		
11.77		1.1284		
11.78		1.1282		
11.79		1.128		
11.8		1.1279		
11.81		1.1277		
11.82		1.1276		
11.83		1.1274		
11.84		1.1272		
11.85		1.1271		
11.86		1.1269		
11.87		1.1268		
11.88		1.1266		
11.89		1.1265		
11.9		1.1263		
11.91		1.1262		
11.92		1.126		
11.93		1.1258		
11.94		1.1257		
11.95		1.1255		
11.96		1.1254		
11.97		1.1252		
11.98		1.1251		
11.99		1.1249		
12		1.1248		
12.01		1.1246		
12.02		1.1245		
12.03		1.1243		
12.04		1.1242		
12.05		1.124		
12.06		1.1239		
12.07		1.1237		
12.08		1.1236		
12.09		1.1234		
12.1		1.1233		
12.11		1.1231		
12.12		1.1229		
12.13		1.1228		
12.14		1.1227		
12.15		1.1225		
12.16		1.1224		
12.17		1.1222		
12.18		1.1221		
12.19		1.1219		
12.2		1.1218		
12.21		1.1216		
12.22		1.1215		
12.23		1.1213		
12.24		1.1212		
12.25		1.121		
12.26		1.1209		
12.27		1.1207		
12.28		1.1206		
12.29		1.1204		
12.3		1.1203		
12.31		1.1201		
12.32		1.12		
12.33		1.1199		
12.34		1.1197		
12.35		1.1196		
12.36		1.1194		
12.37		1.1193		
12.38		1.1191		
12.39		1.119		
12.4		1.1188		
12.41		1.1187		
12.42		1.1186		
12.43		1.1184		
12.44		1.1183		
12.45		1.1181		
12.46		1.118		
12.47		1.1178		
12.48		1.1177		
12.49		1.1176		
12.5		1.1174		
12.51		1.1173		
12.52		1.1171		
12.53		1.117		
12.54		1.1169		
12.55		1.1167		
12.56		1.1166		
12.57		1.1164		
12.58		1.1163		
12.59		1.1162		
12.6		1.116		
12.61		1.1159		
12.62		1.1157		
12.63		1.1156		
12.64		1.1155		
12.65		1.1153		
12.66		1.1152		
12.67		1.1151		
12.68		1.1149		
12.69		1.1148		
12.7		1.1147		
12.71		1.1145		
12.72		1.1144		
12.73		1.1142		
12.74		1.1141		
12.75		1.114		
12.76		1.1138		
12.77		1.1137		
12.78		1.1136		
12.79		1.1134		
12.8		1.1133		
12.81		1.1132		
12.82		1.113		
12.83		1.1129		
12.84		1.1128		
12.85		1.1126		
12.86		1.1125		
12.87		1.1124		
12.88		1.1122		
12.89		1.1121		
12.9		1.112		
12.91		1.1118		
12.92		1.1117		
12.93		1.1116		
12.94		1.1114		
12.95		1.1113		
12.96		1.1112		
12.97		1.111		
12.98		1.1109		
12.99		1.1108		
13		1.1107		
13.01		1.1105		
13.02		1.1104		
13.03		1.1103		
13.04		1.1101		
13.05		1.11		
13.06		1.1099		
13.07		1.1097		
13.08		1.1096		
13.09		1.1095		
13.1		1.1094		
13.11		1.1092		
13.12		1.1091		
13.13		1.109		
13.14		1.1089		
13.15		1.1087		
13.16		1.1086		
13.17		1.1085		
13.18		1.1083		
13.19		1.1082		
13.2		1.1081		
13.21		1.108		
13.22		1.1078		
13.23		1.1077		
13.24		1.1076		
13.25		1.1075		
13.26		1.1073		
13.27		1.1072		
13.28		1.1071		
13.29		1.107		
13.3		1.1068		
13.31		1.1067		
13.32		1.1066		
13.33		1.1065		
13.34		1.1063		
13.35		1.1062		
13.36		1.1061		
13.37		1.106		
13.38		1.1059		
13.39		1.1057		
13.4		1.1056		
13.41		1.1055		
13.42		1.1054		
13.43		1.1052		
13.44		1.1051		
13.45		1.105		
13.46		1.1049		
13.47		1.1048		
13.48		1.1046		
13.49		1.1045		
13.5		1.1044		
13.51		1.1043		
13.52		1.1042		
