tau [fm]		pi [fm^-4]
0.25		0
0.27		0.482701		
0.29		0.818772		
0.31		1.05237		
0.33		1.21317		
0.35		1.32152		
0.37		1.3917		
0.39		1.43386		
0.41		1.45533		
0.43		1.46148		
0.45		1.45626		
0.47		1.44264		
0.49		1.42284		
0.51		1.39854		
0.53		1.37103		
0.55		1.34128		
0.57		1.31005		
0.59		1.27791		
0.61		1.24531		
0.63		1.21259		
0.65		1.18		
0.67		1.14775		
0.69		1.11598		
0.71		1.08481		
0.73		1.05431		
0.75		1.02455		
0.77		0.995555		
0.79		0.967362		
0.81		0.939981		
0.83		0.913414		
0.85		0.88766		
0.87		0.86271		
0.89		0.838553		
0.91		0.815173		
0.93		0.792552		
0.95		0.770671		
0.97		0.74951		
0.99		0.729048		
1.01		0.709263		
1.03		0.690133		
1.05		0.671637		
1.07		0.653753		
1.09		0.636459		
1.11		0.619735		
1.13		0.603561		
1.15		0.587917		
1.17		0.572783		
1.19		0.558141		
1.21		0.543972		
1.23		0.53026		
1.25		0.516987		
1.27		0.504137		
1.29		0.491695		
1.31		0.479645		
1.33		0.467973		
1.35		0.456665		
1.37		0.445707		
1.39		0.435087		
1.41		0.424793		
1.43		0.414812		
1.45		0.405134		
1.47		0.395746		
1.49		0.38664		
1.51		0.377804		
1.53		0.369229		
1.55		0.360906		
1.57		0.352826		
1.59		0.344981		
1.61		0.337361		
1.63		0.32996		
1.65		0.32277		
1.67		0.315783		
1.69		0.308993		
1.71		0.302392		
1.73		0.295975		
1.75		0.289735		
1.77		0.283667		
1.79		0.277764		
1.81		0.272022		
1.83		0.266434		
1.85		0.260996		
1.87		0.255703		
1.89		0.25055		
1.91		0.245533		
1.93		0.240647		
1.95		0.235889		
1.97		0.231253		
1.99		0.226737		
2.01		0.222337		
2.03		0.218048		
2.05		0.213868		
2.07		0.209793		
2.09		0.20582		
2.11		0.201946		
2.13		0.198168		
2.15		0.194483		
2.17		0.190887		
2.19		0.18738		
2.21		0.183957		
2.23		0.180617		
2.25		0.177356		
2.27		0.174174		
2.29		0.171066		
2.31		0.168032		
2.33		0.165069		
2.35		0.162175		
2.37		0.159348		
2.39		0.156587		
2.41		0.153889		
2.43		0.151252		
2.45		0.148676		
2.47		0.146158		
2.49		0.143696		
2.51		0.141289		
2.53		0.138937		
2.55		0.136636		
2.57		0.134386		
2.59		0.132185		
2.61		0.130033		
2.63		0.127927		
2.65		0.125867		
2.67		0.123851		
2.69		0.121879		
2.71		0.119948		
2.73		0.118058		
2.75		0.116209		
2.77		0.114398		
2.79		0.112625		
2.81		0.110889		
2.83		0.109189		
2.85		0.107524		
2.87		0.105893		
2.89		0.104295		
2.91		0.10273		
2.93		0.101197		
2.95		0.0996944		
2.97		0.098222		
2.99		0.0967789		
3.01		0.0953645		
3.03		0.0939781		
3.05		0.092619		
3.07		0.0912865		
3.09		0.0899799		
3.11		0.0886987		
3.13		0.0874423		
3.15		0.08621		
3.17		0.0850013		
3.19		0.0838156		
3.21		0.0826525		
3.23		0.0815112		
3.25		0.0803915		
3.27		0.0792934		
3.29		0.0782181		
3.31		0.0771653		
3.33		0.0761341		
3.35		0.0751241		
3.37		0.0741347		
3.39		0.0731651		
3.41		0.0722151		
3.43		0.0712839		
3.45		0.0703712		
3.47		0.0694765		
3.49		0.0685992		
3.51		0.0677391		
3.53		0.0668955		
3.55		0.0660682		
3.57		0.0652566		
3.59		0.0644605		
3.61		0.0636793		
3.63		0.0629129		
3.65		0.0621606		
3.67		0.0614224		
3.69		0.0606977		
3.71		0.0599862		
3.73		0.0592877		
3.75		0.0586019		
3.77		0.0579283		
3.79		0.0572668		
3.81		0.0566171		
3.83		0.0559788		
3.85		0.0553517		
3.87		0.0547356		
3.89		0.0541301		
3.91		0.0535352		
3.93		0.0529504		
3.95		0.0523756		
3.97		0.0518106		
3.99		0.0512551		
4.01		0.050709		
4.03		0.050172		
4.05		0.0496439		
4.07		0.0491246		
4.09		0.0486137		
4.11		0.0481113		
4.13		0.047617		
4.15		0.0471308		
4.17		0.0466523		
4.19		0.0461816		
4.21		0.0457183		
4.23		0.0452625		
4.25		0.0448138		
4.27		0.0443721		
4.29		0.0439374		
4.31		0.0435094		
4.33		0.0430881		
4.35		0.0426733		
4.37		0.0422648		
4.39		0.0418625		
4.41		0.0414664		
4.43		0.0410763		
4.45		0.040692		
4.47		0.0403135		
4.49		0.0399406		
4.51		0.0395733		
4.53		0.0392114		
4.55		0.0388548		
4.57		0.0385034		
4.59		0.0381571		
4.61		0.0378159		
4.63		0.0374795		
4.65		0.0371481		
4.67		0.0368213		
4.69		0.0364992		
4.71		0.0361816		
4.73		0.0358686		
4.75		0.0355599		
4.77		0.0352555		
4.79		0.0349554		
4.81		0.0346594		
4.83		0.0343675		
4.85		0.0340796		
4.87		0.0337956		
4.89		0.0335155		
4.91		0.0332392		
4.93		0.0329665		
4.95		0.0326976		
4.97		0.0324322		
4.99		0.0321703		
5.01		0.0319119		
5.03		0.0316569		
5.05		0.0314053		
5.07		0.0311569		
5.09		0.0309117		
5.11		0.0306697		
5.13		0.0304308		
5.15		0.030195		
5.17		0.0299621		
5.19		0.0297322		
5.21		0.0295052		
5.23		0.0292811		
5.25		0.0290597		
5.27		0.0288411		
5.29		0.0286252		
5.31		0.028412		
5.33		0.0282013		
5.35		0.0279933		
5.37		0.0277877		
5.39		0.0275847		
5.41		0.0273841		
5.43		0.0271858		
5.45		0.02699		
5.47		0.0267964		
5.49		0.0266052		
5.51		0.0264162		
5.53		0.0262294		
5.55		0.0260447		
5.57		0.0258623		
5.59		0.0256819		
5.61		0.0255035		
5.63		0.0253272		
5.65		0.0251529		
5.67		0.0249806		
5.69		0.0248102		
5.71		0.0246417		
5.73		0.0244751		
5.75		0.0243104		
5.77		0.0241474		
5.79		0.0239863		
5.81		0.0238269		
5.83		0.0236692		
5.85		0.0235133		
5.87		0.023359		
5.89		0.0232063		
5.91		0.0230554		
5.93		0.022906		
5.95		0.0227581		
5.97		0.0226119		
5.99		0.0224671		
6.01		0.0223239		
6.03		0.0221822		
6.05		0.0220419		
6.07		0.0219031		
6.09		0.0217656		
6.11		0.0216296		
6.13		0.021495		
6.15		0.0213617		
6.17		0.0212297		
6.19		0.0210991		
6.21		0.0209698		
6.23		0.0208417		
6.25		0.0207149		
6.27		0.0205894		
6.29		0.0204651		
6.31		0.020342		
6.33		0.02022		
6.35		0.0200993		
6.37		0.0199797		
6.39		0.0198612		
6.41		0.0197439		
6.43		0.0196277		
6.45		0.0195126		
6.47		0.0193985		
6.49		0.0192855		
6.51		0.0191736		
6.53		0.0190627		
6.55		0.0189528		
6.57		0.018844		
6.59		0.0187361		
6.61		0.0186292		
6.63		0.0185233		
6.65		0.0184183		
6.67		0.0183143		
6.69		0.0182112		
6.71		0.018109		
6.73		0.0180078		
6.75		0.0179074		
6.77		0.0178079		
6.79		0.0177093		
6.81		0.0176115		
6.83		0.0175146		
6.85		0.0174185		
6.87		0.0173233		
6.89		0.0172288		
6.91		0.0171352		
6.93		0.0170424		
6.95		0.0169503		
6.97		0.0168591		
6.99		0.0167686		
7.01		0.0166788		
7.03		0.0165898		
7.05		0.0165016		
7.07		0.0164141		
7.09		0.0163273		
7.11		0.0162412		
7.13		0.0161558		
7.15		0.0160711		
7.17		0.0159871		
7.19		0.0159038		
7.21		0.0158212		
7.23		0.0157392		
7.25		0.0156579		
7.27		0.0155772		
7.29		0.0154972		
7.31		0.0154178		
7.33		0.015339		
7.35		0.0152609		
7.37		0.0151833		
7.39		0.0151064		
7.41		0.0150301		
7.43		0.0149543		
7.45		0.0148792		
7.47		0.0148046		
7.49		0.0147306		
7.51		0.0146572		
7.53		0.0145843		
7.55		0.014512		
7.57		0.0144402		
7.59		0.014369		
7.61		0.0142983		
7.63		0.0142281		
7.65		0.0141585		
7.67		0.0140893		
7.69		0.0140207		
7.71		0.0139526		
7.73		0.013885		
7.75		0.0138179		
7.77		0.0137513		
7.79		0.0136852		
7.81		0.0136196		
7.83		0.0135544		
7.85		0.0134897		
7.87		0.0134255		
7.89		0.0133617		
7.91		0.0132984		
7.93		0.0132356		
7.95		0.0131732		
7.97		0.0131112		
7.99		0.0130497		
8.01		0.0129887		
8.03		0.012928		
8.05		0.0128678		
8.07		0.012808		
8.09		0.0127486		
8.11		0.0126897		
8.13		0.0126311		
8.15		0.0125729		
8.17		0.0125152		
8.19		0.0124579		
8.21		0.0124009		
8.23		0.0123443		
8.25		0.0122882		
8.27		0.0122324		
8.29		0.012177		
8.31		0.0121219		
8.33		0.0120673		
8.35		0.012013		
8.37		0.0119591		
8.39		0.0119055		
8.41		0.0118523		
8.43		0.0117994		
8.45		0.0117469		
8.47		0.0116948		
8.49		0.011643		
8.51		0.0115915		
8.53		0.0115404		
8.55		0.0114896		
8.57		0.0114392		
8.59		0.0113891		
8.61		0.0113393		
8.63		0.0112898		
8.65		0.0112407		
8.67		0.0111918		
8.69		0.0111433		
8.71		0.0110951		
8.73		0.0110472		
8.75		0.0109997		
8.77		0.0109524		
8.79		0.0109054		
8.81		0.0108587		
8.83		0.0108124		
8.85		0.0107663		
8.87		0.0107205		
8.89		0.010675		
8.91		0.0106298		
8.93		0.0105849		
8.95		0.0105402		
8.97		0.0104958		
8.99		0.0104518		
9.01		0.0104079		
9.03		0.0103644		
9.05		0.0103211		
9.07		0.0102781		
9.09		0.0102354		
9.11		0.0101929		
9.13		0.0101507		
9.15		0.0101088		
9.17		0.0100671		
9.19		0.0100256		
9.21		0.00998444		
9.23		0.0099435		
9.25		0.00990281		
9.27		0.00986237		
9.29		0.00982218		
9.31		0.00978222		
9.33		0.00974251		
9.35		0.00970304		
9.37		0.0096638		
9.39		0.0096248		
9.41		0.00958603		
9.43		0.00954749		
9.45		0.00950918		
9.47		0.0094711		
9.49		0.00943325		
9.51		0.00939561		
9.53		0.00935821		
9.55		0.00932102		
9.57		0.00928405		
9.59		0.00924729		
9.61		0.00921076		
9.63		0.00917443		
9.65		0.00913832		
9.67		0.00910242		
9.69		0.00906672		
9.71		0.00903124		
9.73		0.00899596		
9.75		0.00896088		
9.77		0.008926		
9.79		0.00889133		
9.81		0.00885685		
9.83		0.00882258		
9.85		0.0087885		
9.87		0.00875461		
9.89		0.00872091		
9.91		0.00868741		
9.93		0.0086541		
9.95		0.00862098		
9.97		0.00858804		
9.99		0.00855529		
10.01		0.00852273		
10.03		0.00849035		
10.05		0.00845815		
10.07		0.00842613		
10.09		0.00839429		
10.11		0.00836262		
10.13		0.00833114		
10.15		0.00829983		
10.17		0.00826869		
10.19		0.00823773		
10.21		0.00820693		
10.23		0.00817631		
10.25		0.00814586		
10.27		0.00811557		
10.29		0.00808545		
10.31		0.0080555		
10.33		0.00802571		
10.35		0.00799608		
10.37		0.00796661		
10.39		0.00793731		
10.41		0.00790816		
10.43		0.00787917		
10.45		0.00785034		
10.47		0.00782167		
10.49		0.00779315		
10.51		0.00776478		
10.53		0.00773656		
10.55		0.0077085		
10.57		0.00768059		
10.59		0.00765283		
10.61		0.00762521		
10.63		0.00759775		
10.65		0.00757043		
10.67		0.00754325		
10.69		0.00751622		
10.71		0.00748933		
10.73		0.00746258		
10.75		0.00743598		
10.77		0.00740951		
10.79		0.00738319		
10.81		0.007357		
10.83		0.00733095		
10.85		0.00730504		
10.87		0.00727926		
10.89		0.00725362		
10.91		0.00722811		
10.93		0.00720273		
10.95		0.00717749		
10.97		0.00715237		
10.99		0.00712739		
11.01		0.00710253		
11.03		0.0070778		
11.05		0.0070532		
11.07		0.00702873		
11.09		0.00700438		
11.11		0.00698016		
11.13		0.00695606		
11.15		0.00693208		
11.17		0.00690823		
11.19		0.0068845		
11.21		0.00686089		
11.23		0.00683739		
11.25		0.00681402		
11.27		0.00679077		
11.29		0.00676763		
11.31		0.00674461		
11.33		0.00672171		
11.35		0.00669892		
11.37		0.00667624		
11.39		0.00665368		
11.41		0.00663123		
11.43		0.00660889		
11.45		0.00658667		
11.47		0.00656455		
11.49		0.00654255		
11.51		0.00652065		
11.53		0.00649887		
11.55		0.00647719		
11.57		0.00645562		
11.59		0.00643415		
11.61		0.00641279		
11.63		0.00639154		
11.65		0.00637039		
11.67		0.00634934		
11.69		0.0063284		
11.71		0.00630755		
11.73		0.00628681		
11.75		0.00626618		
11.77		0.00624564		
11.79		0.0062252		
11.81		0.00620486		
11.83		0.00618462		
11.85		0.00616448		
11.87		0.00614443		
11.89		0.00612448		
11.91		0.00610463		
11.93		0.00608487		
11.95		0.00606521		
11.97		0.00604564		
11.99		0.00602616		
12.01		0.00600678		
12.03		0.00598749		
12.05		0.00596829		
12.07		0.00594918		
12.09		0.00593017		
12.11		0.00591124		
12.13		0.00589241		
12.15		0.00587366		
12.17		0.005855		
12.19		0.00583643		
12.21		0.00581795		
12.23		0.00579955		
12.25		0.00578124		
12.27		0.00576301		
12.29		0.00574487		
12.31		0.00572682		
12.33		0.00570885		
12.35		0.00569096		
12.37		0.00567316		
12.39		0.00565544		
12.41		0.0056378		
12.43		0.00562024		
12.45		0.00560277		
12.47		0.00558537		
12.49		0.00556805		
12.51		0.00555082		
12.53		0.00553366		
12.55		0.00551659		
12.57		0.00549959		
12.59		0.00548266		
12.61		0.00546582		
12.63		0.00544905		
12.65		0.00543236		
12.67		0.00541575		
12.69		0.00539921		
12.71		0.00538274		
12.73		0.00536635		
12.75		0.00535004		
12.77		0.00533379		
12.79		0.00531763		
12.81		0.00530153		
12.83		0.00528551		
12.85		0.00526955		
12.87		0.00525367		
12.89		0.00523786		
12.91		0.00522213		
12.93		0.00520646		
12.95		0.00519086		
12.97		0.00517533		
12.99		0.00515987		
13.01		0.00514448		
13.03		0.00512916		
13.05		0.0051139		
13.07		0.00509872		
13.09		0.00508359		
13.11		0.00506854		
13.13		0.00505355		
13.15		0.00503863		
13.17		0.00502378		
13.19		0.00500898		
13.21		0.00499426		
13.23		0.0049796		
13.25		0.004965		
13.27		0.00495046		
13.29		0.00493599		
13.31		0.00492159		
13.33		0.00490724		
13.35		0.00489296		
13.37		0.00487874		
13.39		0.00486458		
13.41		0.00485048		
13.43		0.00483644		
13.45		0.00482246		
13.47		0.00480854		
13.49		0.00479469		
13.51		0.00478089		
13.53		0.00476715		
13.55		0.00475347		
13.57		0.00473985		
13.59		0.00472628		
13.61		0.00471278		
13.63		0.00469933		
13.65		0.00468594		
13.67		0.0046726		
13.69		0.00465932		
13.71		0.0046461		
13.73		0.00463294		
13.75		0.00461983		
13.77		0.00460677		
13.79		0.00459377		
13.81		0.00458083		
13.83		0.00456793		
13.85		0.0045551		
13.87		0.00454231		
13.89		0.00452958		
13.91		0.00451691		
13.93		0.00450428		
13.95		0.00449171		
13.97		0.00447919		
13.99		0.00446672		
14.01		0.00445431		
14.03		0.00444194		
14.05		0.00442963		
14.07		0.00441737		
14.09		0.00440516		
14.11		0.004393		
14.13		0.00438088		
14.15		0.00436882		
14.17		0.00435681		
14.19		0.00434485		
14.21		0.00433293		
14.23		0.00432107		
14.25		0.00430925		
14.27		0.00429748		
14.29		0.00428576		
14.31		0.00427409		
14.33		0.00426246		
14.35		0.00425089		
14.37		0.00423935		
14.39		0.00422787		
14.41		0.00421643		
14.43		0.00420504		
14.45		0.00419369		
14.47		0.00418239		
14.49		0.00417113		
14.51		0.00415992		
14.53		0.00414876		
14.55		0.00413764		
14.57		0.00412656		
14.59		0.00411553		
14.61		0.00410454		
14.63		0.0040936		
14.65		0.0040827		
14.67		0.00407184		
14.69		0.00406103		
14.71		0.00405025		
14.73		0.00403953		
14.75		0.00402884		
14.77		0.00401819		
14.79		0.00400759		
14.81		0.00399703		
14.83		0.00398651		
14.85		0.00397603		
14.87		0.0039656		
14.89		0.0039552		
14.91		0.00394485		
14.93		0.00393453		
14.95		0.00392426		
14.97		0.00391402		
14.99		0.00390383		
15.01		0.00389367		
15.03		0.00388356		
15.05		0.00387348		
15.07		0.00386344		
15.09		0.00385345		
15.11		0.00384349		
15.13		0.00383357		
15.15		0.00382368		
15.17		0.00381384		
15.19		0.00380403		
15.21		0.00379426		
15.23		0.00378453		
15.25		0.00377483		
15.27		0.00376518		
15.29		0.00375555		
15.31		0.00374597		
15.33		0.00373642		
15.35		0.00372691		
15.37		0.00371744		
15.39		0.003708		
15.41		0.00369859		
15.43		0.00368923		
15.45		0.00367989		
15.47		0.0036706		
15.49		0.00366133		
15.51		0.00365211		
15.53		0.00364292		
15.55		0.00363376		
15.57		0.00362463		
15.59		0.00361554		
15.61		0.00360649		
15.63		0.00359747		
15.65		0.00358848		
15.67		0.00357953		
15.69		0.00357061		
15.71		0.00356172		
15.73		0.00355286		
15.75		0.00354404		
15.77		0.00353525		
15.79		0.0035265		
15.81		0.00351777		
15.83		0.00350908		
15.85		0.00350042		
15.87		0.0034918		
15.89		0.0034832		
15.91		0.00347464		
15.93		0.0034661		
15.95		0.0034576		
15.97		0.00344913		
15.99		0.00344069		
16.01		0.00343228		
16.03		0.00342391		
16.05		0.00341556		
16.07		0.00340724		
16.09		0.00339896		
16.11		0.0033907		
16.13		0.00338247		
16.15		0.00337428		
16.17		0.00336611		
16.19		0.00335797		
16.21		0.00334987		
16.23		0.00334179		
16.25		0.00333374		
16.27		0.00332572		
16.29		0.00331773		
16.31		0.00330976		
16.33		0.00330183		
16.35		0.00329392		
16.37		0.00328605		
16.39		0.0032782		
16.41		0.00327038		
16.43		0.00326258		
16.45		0.00325482		
16.47		0.00324708		
16.49		0.00323937		
16.51		0.00323168		
16.53		0.00322403		
16.55		0.0032164		
16.57		0.0032088		
16.59		0.00320122		
16.61		0.00319368		
16.63		0.00318615		
16.65		0.00317866		
16.67		0.00317119		
16.69		0.00316375		
16.71		0.00315633		
16.73		0.00314894		
16.75		0.00314158		
16.77		0.00313424		
16.79		0.00312692		
16.81		0.00311964		
16.83		0.00311238		
16.85		0.00310514		
16.87		0.00309793		
16.89		0.00309074		
16.91		0.00308358		
16.93		0.00307644		
16.95		0.00306933		
16.97		0.00306224		
16.99		0.00305518		
17.01		0.00304814		
17.03		0.00304113		
17.05		0.00303414		
17.07		0.00302717		
17.09		0.00302023		
17.11		0.00301331		
17.13		0.00300641		
17.15		0.00299954		
17.17		0.0029927		
17.19		0.00298587		
17.21		0.00297907		
17.23		0.00297229		
17.25		0.00296554		
17.27		0.00295881		
17.29		0.0029521		
17.31		0.00294541		
17.33		0.00293875		
17.35		0.00293211		
17.37		0.00292549		
17.39		0.00291889		
17.41		0.00291232		
17.43		0.00290577		
17.45		0.00289924		
17.47		0.00289273		
17.49		0.00288625		
17.51		0.00287978		
17.53		0.00287334		
17.55		0.00286692		
17.57		0.00286052		
17.59		0.00285414		
17.61		0.00284778		
17.63		0.00284145		
17.65		0.00283513		
17.67		0.00282884		
17.69		0.00282257		
17.71		0.00281632		
17.73		0.00281009		
17.75		0.00280388		
17.77		0.00279769		
17.79		0.00279152		
17.81		0.00278537		
17.83		0.00277924		
17.85		0.00277313		
17.87		0.00276704		
17.89		0.00276098		
17.91		0.00275493		
17.93		0.0027489		
17.95		0.00274289		
17.97		0.0027369		
17.99		0.00273093		
18.01		0.00272498		
18.03		0.00271905		
18.05		0.00271314		
18.07		0.00270725		
18.09		0.00270137		
18.11		0.00269552		
18.13		0.00268969		
18.15		0.00268387		
18.17		0.00267807		
18.19		0.00267229		
18.21		0.00266653		
18.23		0.00266079		
18.25		0.00265507		
18.27		0.00264937		
18.29		0.00264368		
18.31		0.00263801		
18.33		0.00263236		
18.35		0.00262673		
18.37		0.00262112		
18.39		0.00261552		
18.41		0.00260995		
18.43		0.00260439		
18.45		0.00259885		
18.47		0.00259332		
18.49		0.00258782		
18.51		0.00258233		
18.53		0.00257685		
18.55		0.0025714		
18.57		0.00256596		
18.59		0.00256054		
18.61		0.00255514		
18.63		0.00254976		
18.65		0.00254439		
18.67		0.00253904		
18.69		0.0025337		
18.71		0.00252838		
18.73		0.00252308		
18.75		0.0025178		
18.77		0.00251253		
18.79		0.00250728		
18.81		0.00250204		
18.83		0.00249682		
18.85		0.00249162		
18.87		0.00248644		
18.89		0.00248127		
18.91		0.00247611		
18.93		0.00247097		
18.95		0.00246585		
18.97		0.00246075		
18.99		0.00245566		
19.01		0.00245058		
19.03		0.00244552		
19.05		0.00244048		
19.07		0.00243545		
19.09		0.00243044		
19.11		0.00242545		
19.13		0.00242046		
19.15		0.0024155		
19.17		0.00241055		
19.19		0.00240561		
19.21		0.00240069		
19.23		0.00239579		
19.25		0.0023909		
19.27		0.00238602		
19.29		0.00238116		
19.31		0.00237632		
19.33		0.00237149		
19.35		0.00236667		
19.37		0.00236187		
19.39		0.00235708		
19.41		0.00235231		
19.43		0.00234755		
19.45		0.00234281		
19.47		0.00233808		
19.49		0.00233337		
19.51		0.00232867		
19.53		0.00232398		
19.55		0.00231931		
19.57		0.00231465		
19.59		0.00231001		
19.61		0.00230538		
19.63		0.00230076		
19.65		0.00229616		
19.67		0.00229157		
19.69		0.002287		
19.71		0.00228244		
19.73		0.00227789		
19.75		0.00227335		
19.77		0.00226883		
19.79		0.00226433		
19.81		0.00225983		
19.83		0.00225535		
19.85		0.00225089		
19.87		0.00224643		
19.89		0.00224199		
19.91		0.00223757		
19.93		0.00223315		
19.95		0.00222875		
19.97		0.00222436		
19.99		0.00221999		
20.01		0.00221563		
20.03		0.00221128		
20.05		0.00220694		
20.07		0.00220262		
20.09		0.00219831		
20.11		0.00219401		
20.13		0.00218972		
20.15		0.00218545		
20.17		0.00218119		
20.19		0.00217694		
20.21		0.00217271		
20.23		0.00216848		
20.25		0.00216427		
20.27		0.00216007		
20.29		0.00215589		
20.31		0.00215171		
20.33		0.00214755		
20.35		0.0021434		
20.37		0.00213926		
20.39		0.00213513		
20.41		0.00213102		
20.43		0.00212692		
20.45		0.00212283		
20.47		0.00211875		
20.49		0.00211468		
20.51		0.00211062		
20.53		0.00210658		
20.55		0.00210255		
20.57		0.00209853		
20.59		0.00209452		
20.61		0.00209052		
20.63		0.00208653		
20.65		0.00208256		
20.67		0.0020786		
20.69		0.00207464		
20.71		0.0020707		
20.73		0.00206677		
20.75		0.00206285		
20.77		0.00205895		
20.79		0.00205505		
20.81		0.00205117		
20.83		0.00204729		
20.85		0.00204343		
20.87		0.00203958		
20.89		0.00203573		
20.91		0.0020319		
20.93		0.00202808		
20.95		0.00202428		
20.97		0.00202048		
20.99		0.00201669		
21.01		0.00201291		
21.03		0.00200915		
21.05		0.00200539		
21.07		0.00200165		
21.09		0.00199791		
21.11		0.00199419		
21.13		0.00199047		
21.15		0.00198677		
21.17		0.00198308		
21.19		0.00197939		
21.21		0.00197572		
21.23		0.00197206		
21.25		0.00196841		
21.27		0.00196476		
21.29		0.00196113		
21.31		0.00195751		
21.33		0.0019539		
21.35		0.0019503		
21.37		0.0019467		
21.39		0.00194312		
21.41		0.00193955		
