tau [fm]		Pi [fm^-4]
0.25		-0
0.26		-0.10448		
0.27		-0.187149		
0.28		-0.251727		
0.29		-0.301294		
0.3		-0.338411		
0.31		-0.365215		
0.32		-0.383495		
0.33		-0.394754		
0.34		-0.400257		
0.35		-0.401068		
0.36		-0.398088		
0.37		-0.392073		
0.38		-0.383665		
0.39		-0.373402		
0.4		-0.36174		
0.41		-0.349059		
0.42		-0.335679		
0.43		-0.321866		
0.44		-0.307842		
0.45		-0.293788		
0.46		-0.279854		
0.47		-0.26616		
0.48		-0.252803		
0.49		-0.239857		
0.5		-0.22738		
0.51		-0.215416		
0.52		-0.203995		
0.53		-0.193134		
0.54		-0.182846		
0.55		-0.173132		
0.56		-0.163989		
0.57		-0.155408		
0.58		-0.147378		
0.59		-0.139881		
0.6		-0.132899		
0.61		-0.126412		
0.62		-0.120399		
0.63		-0.114835		
0.64		-0.109699		
0.65		-0.104966		
0.66		-0.100612		
0.67		-0.0966152		
0.68		-0.0929517		
0.69		-0.0895996		
0.7		-0.0865371		
0.71		-0.0837436		
0.72		-0.0811991		
0.73		-0.0788846		
0.74		-0.076782		
0.75		-0.0748743		
0.76		-0.0731452		
0.77		-0.0715797		
0.78		-0.0701634		
0.79		-0.0688831		
0.8		-0.0677263		
0.81		-0.0666816		
0.82		-0.0657383		
0.83		-0.0648863		
0.84		-0.0641167		
0.85		-0.063421		
0.86		-0.0627916		
0.87		-0.0622212		
0.88		-0.0617035		
0.89		-0.0612325		
0.9		-0.0608029		
0.91		-0.0604098		
0.92		-0.0600489		
0.93		-0.059716		
0.94		-0.0594077		
0.95		-0.0591206		
0.96		-0.0588519		
0.97		-0.058599		
0.98		-0.0583595		
0.99		-0.0581315		
1		-0.057913		
1.01		-0.0577025		
1.02		-0.0574986		
1.03		-0.0573		
1.04		-0.0571056		
1.05		-0.0569145		
1.06		-0.0567259		
1.07		-0.056539		
1.08		-0.0563533		
1.09		-0.0561683		
1.1		-0.0559835		
1.11		-0.0557987		
1.12		-0.0556135		
1.13		-0.0554276		
1.14		-0.055241		
1.15		-0.0550535		
1.16		-0.054865		
1.17		-0.0546754		
1.18		-0.0544847		
1.19		-0.0542929		
1.2		-0.0541001		
1.21		-0.0539062		
1.22		-0.0537113		
1.23		-0.0535156		
1.24		-0.0533189		
1.25		-0.0531215		
1.26		-0.0529234		
1.27		-0.0527248		
1.28		-0.0525256		
1.29		-0.0523261		
1.3		-0.0521264		
1.31		-0.0519264		
1.32		-0.0517264		
1.33		-0.0515265		
1.34		-0.0513267		
1.35		-0.0511272		
1.36		-0.050928		
1.37		-0.0507293		
1.38		-0.0505312		
1.39		-0.0503337		
1.4		-0.0501369		
1.41		-0.049941		
1.42		-0.049746		
1.43		-0.049552		
1.44		-0.0493591		
1.45		-0.0491673		
1.46		-0.0489768		
1.47		-0.0487875		
1.48		-0.0485996		
1.49		-0.0484131		
1.5		-0.0482281		
1.51		-0.0480447		
1.52		-0.0478628		
1.53		-0.0476826		
1.54		-0.0475041		
1.55		-0.0473273		
1.56		-0.0471523		
1.57		-0.0469791		
1.58		-0.0468077		
1.59		-0.0466383		
1.6		-0.0464708		
1.61		-0.0463052		
1.62		-0.0461416		
1.63		-0.04598		
1.64		-0.0458205		
1.65		-0.045663		
1.66		-0.0455075		
1.67		-0.0453542		
1.68		-0.045203		
1.69		-0.0450538		
1.7		-0.0449069		
1.71		-0.044762		
1.72		-0.0446194		
1.73		-0.0444788		
1.74		-0.0443405		
1.75		-0.0442043		
1.76		-0.0440704		
1.77		-0.0439386		
1.78		-0.043809		
1.79		-0.0436816		
1.8		-0.0435564		
1.81		-0.0434334		
1.82		-0.0433125		
1.83		-0.0431939		
1.84		-0.0430774		
1.85		-0.0429632		
1.86		-0.0428511		
1.87		-0.0427412		
1.88		-0.0426334		
1.89		-0.0425278		
1.9		-0.0424244		
1.91		-0.0423231		
1.92		-0.0422239		
1.93		-0.0421269		
1.94		-0.042032		
1.95		-0.0419391		
1.96		-0.0418484		
1.97		-0.0417598		
1.98		-0.0416733		
1.99		-0.0415888		
2		-0.0415064		
2.01		-0.041426		
2.02		-0.0413476		
2.03		-0.0412713		
2.04		-0.0411969		
2.05		-0.0411246		
2.06		-0.0410542		
2.07		-0.0409858		
2.08		-0.0409193		
2.09		-0.0408548		
2.1		-0.0407922		
2.11		-0.0407315		
2.12		-0.0406726		
2.13		-0.0406157		
2.14		-0.0405606		
2.15		-0.0405074		
2.16		-0.040456		
2.17		-0.0404064		
2.18		-0.0403586		
2.19		-0.0403126		
2.2		-0.0402684		
2.21		-0.0402259		
2.22		-0.0401852		
2.23		-0.0401462		
2.24		-0.0401089		
2.25		-0.0400733		
2.26		-0.0400394		
2.27		-0.0400071		
2.28		-0.0399765		
2.29		-0.0399475		
2.3		-0.0399202		
2.31		-0.0398944		
2.32		-0.0398702		
2.33		-0.0398476		
2.34		-0.0398266		
2.35		-0.039807		
2.36		-0.0397891		
2.37		-0.0397726		
2.38		-0.0397576		
2.39		-0.0397441		
2.4		-0.039732		
2.41		-0.0397214		
2.42		-0.0397123		
2.43		-0.0397045		
2.44		-0.0396982		
2.45		-0.0396932		
2.46		-0.0396897		
2.47		-0.0396874		
2.48		-0.0396866		
2.49		-0.039687		
2.5		-0.0396888		
2.51		-0.0396919		
2.52		-0.0396963		
2.53		-0.0397019		
2.54		-0.0397088		
2.55		-0.0397169		
2.56		-0.0397263		
2.57		-0.0397369		
2.58		-0.0397487		
2.59		-0.0397617		
2.6		-0.0397759		
2.61		-0.0397912		
2.62		-0.0398077		
2.63		-0.0398254		
2.64		-0.0398441		
2.65		-0.039864		
2.66		-0.0398849		
2.67		-0.039907		
2.68		-0.0399301		
2.69		-0.0399543		
2.7		-0.0399796		
2.71		-0.0400058		
2.72		-0.0400331		
2.73		-0.0400615		
2.74		-0.0400908		
2.75		-0.0401211		
2.76		-0.0401524		
2.77		-0.0401846		
2.78		-0.0402178		
2.79		-0.0402519		
2.8		-0.040287		
2.81		-0.040323		
2.82		-0.0403599		
2.83		-0.0403977		
2.84		-0.0404364		
2.85		-0.0404759		
2.86		-0.0405163		
2.87		-0.0405576		
2.88		-0.0405997		
2.89		-0.0406427		
2.9		-0.0406865		
2.91		-0.040731		
2.92		-0.0407764		
2.93		-0.0408226		
2.94		-0.0408695		
2.95		-0.0409173		
2.96		-0.0409658		
2.97		-0.041015		
2.98		-0.041065		
2.99		-0.0411157		
3		-0.0411671		
3.01		-0.0412193		
3.02		-0.0412721		
3.03		-0.0413257		
3.04		-0.0413799		
3.05		-0.0414348		
3.06		-0.0414904		
3.07		-0.0415466		
3.08		-0.0416035		
3.09		-0.041661		
3.1		-0.0417192		
3.11		-0.041778		
3.12		-0.0418374		
3.13		-0.0418974		
3.14		-0.041958		
3.15		-0.0420192		
3.16		-0.0420809		
3.17		-0.0421433		
3.18		-0.0422062		
3.19		-0.0422697		
3.2		-0.0423337		
3.21		-0.0423983		
3.22		-0.0424634		
3.23		-0.042529		
3.24		-0.0425952		
3.25		-0.0426619		
3.26		-0.0427291		
3.27		-0.0427967		
3.28		-0.0428649		
3.29		-0.0429336		
3.3		-0.0430027		
3.31		-0.0430723		
3.32		-0.0431424		
3.33		-0.0432129		
3.34		-0.0432839		
3.35		-0.0433553		
3.36		-0.0434272		
3.37		-0.0434995		
3.38		-0.0435722		
3.39		-0.0436453		
3.4		-0.0437189		
3.41		-0.0437928		
3.42		-0.0438672		
3.43		-0.0439419		
3.44		-0.0440171		
3.45		-0.0440926		
3.46		-0.0441685		
3.47		-0.0442447		
3.48		-0.0443214		
3.49		-0.0443983		
3.5		-0.0444757		
3.51		-0.0445534		
3.52		-0.0446314		
3.53		-0.0447098		
3.54		-0.0447884		
3.55		-0.0448675		
3.56		-0.0449468		
3.57		-0.0450264		
3.58		-0.0451064		
3.59		-0.0451867		
3.6		-0.0452672		
3.61		-0.0453481		
3.62		-0.0454293		
3.63		-0.0455107		
3.64		-0.0455924		
3.65		-0.0456744		
3.66		-0.0457566		
3.67		-0.0458392		
3.68		-0.0459219		
3.69		-0.046005		
3.7		-0.0460883		
3.71		-0.0461718		
3.72		-0.0462556		
3.73		-0.0463396		
3.74		-0.0464239		
3.75		-0.0465083		
3.76		-0.0465931		
3.77		-0.046678		
3.78		-0.0467631		
3.79		-0.0468485		
3.8		-0.0469341		
3.81		-0.0470198		
3.82		-0.0471058		
3.83		-0.047192		
3.84		-0.0472783		
3.85		-0.0473649		
3.86		-0.0474516		
3.87		-0.0475385		
3.88		-0.0476256		
3.89		-0.0477129		
3.9		-0.0478003		
3.91		-0.0478879		
3.92		-0.0479757		
3.93		-0.0480636		
3.94		-0.0481517		
3.95		-0.0482399		
3.96		-0.0483283		
3.97		-0.0484168		
3.98		-0.0485055		
3.99		-0.0485943		
4		-0.0486832		
4.01		-0.0487723		
4.02		-0.0488615		
4.03		-0.0489508		
4.04		-0.0490403		
4.05		-0.0491299		
4.06		-0.0492196		
4.07		-0.0493094		
4.08		-0.0493993		
4.09		-0.0494893		
4.1		-0.0495794		
4.11		-0.0496697		
4.12		-0.04976		
4.13		-0.0498504		
4.14		-0.0499409		
4.15		-0.0500315		
4.16		-0.0501222		
4.17		-0.050213		
4.18		-0.0503039		
4.19		-0.0503948		
4.2		-0.0504858		
4.21		-0.0505769		
4.22		-0.0506681		
4.23		-0.0507593		
4.24		-0.0508506		
4.25		-0.050942		
4.26		-0.0510334		
4.27		-0.0511249		
4.28		-0.0512164		
4.29		-0.051308		
4.3		-0.0513997		
4.31		-0.0514914		
4.32		-0.0515831		
4.33		-0.0516749		
4.34		-0.0517668		
4.35		-0.0518587		
4.36		-0.0519506		
4.37		-0.0520425		
4.38		-0.0521345		
4.39		-0.0522265		
4.4		-0.0523186		
4.41		-0.0524107		
4.42		-0.0525028		
4.43		-0.0525949		
4.44		-0.0526871		
4.45		-0.0527792		
4.46		-0.0528714		
4.47		-0.0529636		
4.48		-0.0530558		
4.49		-0.0531481		
4.5		-0.0532403		
4.51		-0.0533326		
4.52		-0.0534248		
4.53		-0.0535171		
4.54		-0.0536094		
4.55		-0.0537016		
4.56		-0.0537939		
4.57		-0.0538862		
4.58		-0.0539784		
4.59		-0.0540707		
4.6		-0.0541629		
4.61		-0.0542552		
4.62		-0.0543474		
4.63		-0.0544396		
4.64		-0.0545318		
4.65		-0.054624		
4.66		-0.0547162		
4.67		-0.0548084		
4.68		-0.0549005		
4.69		-0.0549926		
4.7		-0.0550847		
4.71		-0.0551768		
4.72		-0.0552688		
4.73		-0.0553608		
4.74		-0.0554528		
4.75		-0.0555448		
4.76		-0.0556367		
4.77		-0.0557286		
4.78		-0.0558204		
4.79		-0.0559122		
4.8		-0.056004		
4.81		-0.0560958		
4.82		-0.0561875		
4.83		-0.0562792		
4.84		-0.0563708		
4.85		-0.0564624		
4.86		-0.0565539		
4.87		-0.0566454		
4.88		-0.0567368		
4.89		-0.0568282		
4.9		-0.0569196		
4.91		-0.0570109		
4.92		-0.0571021		
4.93		-0.0571933		
4.94		-0.0572844		
4.95		-0.0573755		
4.96		-0.0574665		
4.97		-0.0575575		
4.98		-0.0576484		
4.99		-0.0577393		
5		-0.0578301		
5.01		-0.0579208		
5.02		-0.0580115		
5.03		-0.0581021		
5.04		-0.0581926		
5.05		-0.0582831		
5.06		-0.0583735		
5.07		-0.0584638		
5.08		-0.0585541		
5.09		-0.0586443		
5.1		-0.0587344		
5.11		-0.0588245		
5.12		-0.0589145		
5.13		-0.0590044		
5.14		-0.0590942		
5.15		-0.059184		
5.16		-0.0592737		
5.17		-0.0593633		
5.18		-0.0594528		
5.19		-0.0595423		
5.2		-0.0596317		
5.21		-0.059721		
5.22		-0.0598102		
5.23		-0.0598993		
5.24		-0.0599884		
5.25		-0.0600774		
5.26		-0.0601663		
5.27		-0.0602551		
5.28		-0.0603438		
5.29		-0.0604324		
5.3		-0.060521		
5.31		-0.0606094		
5.32		-0.0606978		
5.33		-0.0607861		
5.34		-0.0608743		
5.35		-0.0609624		
5.36		-0.0610504		
5.37		-0.0611383		
5.38		-0.0612261		
5.39		-0.0613138		
5.4		-0.0614015		
5.41		-0.061489		
5.42		-0.0615765		
5.43		-0.0616638		
5.44		-0.0617511		
5.45		-0.0618383		
5.46		-0.0619253		
5.47		-0.0620123		
5.48		-0.0620992		
5.49		-0.0621859		
5.5		-0.0622726		
5.51		-0.0623592		
5.52		-0.0624456		
5.53		-0.062532		
5.54		-0.0626183		
5.55		-0.0627045		
5.56		-0.0627905		
5.57		-0.0628765		
5.58		-0.0629623		
5.59		-0.0630481		
5.6		-0.0631337		
5.61		-0.0632193		
5.62		-0.0633047		
5.63		-0.06339		
5.64		-0.0634752		
5.65		-0.0635604		
5.66		-0.0636454		
5.67		-0.0637303		
5.68		-0.0638151		
5.69		-0.0638997		
5.7		-0.0639843		
5.71		-0.0640688		
5.72		-0.0641531		
5.73		-0.0642374		
5.74		-0.0643215		
5.75		-0.0644055		
5.76		-0.0644894		
5.77		-0.0645732		
5.78		-0.0646569		
5.79		-0.0647405		
5.8		-0.0648239		
5.81		-0.0649073		
5.82		-0.0649905		
5.83		-0.0650736		
5.84		-0.0651566		
5.85		-0.0652395		
5.86		-0.0653223		
5.87		-0.0654049		
5.88		-0.0654874		
5.89		-0.0655699		
5.9		-0.0656522		
5.91		-0.0657344		
5.92		-0.0658164		
5.93		-0.0658984		
5.94		-0.0659802		
5.95		-0.0660619		
5.96		-0.0661435		
5.97		-0.066225		
5.98		-0.0663064		
5.99		-0.0663876		
6		-0.0664687		
6.01		-0.0665497		
6.02		-0.0666306		
6.03		-0.0667113		
6.04		-0.066792		
6.05		-0.0668725		
6.06		-0.0669529		
6.07		-0.0670332		
6.08		-0.0671133		
6.09		-0.0671933		
6.1		-0.0672733		
6.11		-0.067353		
6.12		-0.0674327		
6.13		-0.0675122		
6.14		-0.0675917		
6.15		-0.0676709		
6.16		-0.0677501		
6.17		-0.0678292		
6.18		-0.0679081		
6.19		-0.0679869		
6.2		-0.0680656		
6.21		-0.0681441		
6.22		-0.0682225		
6.23		-0.0683008		
6.24		-0.068379		
6.25		-0.0684571		
6.26		-0.068535		
6.27		-0.0686128		
6.28		-0.0686905		
6.29		-0.068768		
6.3		-0.0688454		
6.31		-0.0689227		
6.32		-0.0689999		
6.33		-0.0690769		
6.34		-0.0691538		
6.35		-0.0692306		
6.36		-0.0693073		
6.37		-0.0693838		
6.38		-0.0694602		
6.39		-0.0695365		
6.4		-0.0696127		
6.41		-0.0696887		
6.42		-0.0697646		
6.43		-0.0698404		
6.44		-0.069916		
6.45		-0.0699915		
6.46		-0.0700669		
6.47		-0.0701422		
6.48		-0.0702173		
6.49		-0.0702923		
6.5		-0.0703672		
6.51		-0.0704419		
6.52		-0.0705165		
6.53		-0.070591		
6.54		-0.0706654		
6.55		-0.0707396		
6.56		-0.0708137		
6.57		-0.0708877		
6.58		-0.0709615		
6.59		-0.0710352		
6.6		-0.0711088		
6.61		-0.0711823		
6.62		-0.0712556		
6.63		-0.0713288		
6.64		-0.0714019		
6.65		-0.0714748		
6.66		-0.0715476		
6.67		-0.0716203		
6.68		-0.0716929		
6.69		-0.0717653		
6.7		-0.0718376		
6.71		-0.0719097		
6.72		-0.0719818		
6.73		-0.0720537		
6.74		-0.0721254		
6.75		-0.0721971		
6.76		-0.0722686		
6.77		-0.07234		
6.78		-0.0724112		
6.79		-0.0724823		
6.8		-0.0725533		
6.81		-0.0726242		
6.82		-0.0726949		
6.83		-0.0727655		
6.84		-0.072836		
6.85		-0.0729063		
6.86		-0.0729765		
6.87		-0.0730466		
6.88		-0.0731166		
6.89		-0.0731864		
6.9		-0.0732561		
6.91		-0.0733256		
6.92		-0.0733951		
6.93		-0.0734644		
6.94		-0.0735335		
6.95		-0.0736026		
6.96		-0.0736715		
6.97		-0.0737403		
6.98		-0.0738089		
6.99		-0.0738774		
7		-0.0739458		
7.01		-0.0740141		
7.02		-0.0740822		
7.03		-0.0741502		
7.04		-0.0742181		
7.05		-0.0742858		
7.06		-0.0743534		
7.07		-0.0744209		
7.08		-0.0744882		
7.09		-0.0745555		
7.1		-0.0746226		
7.11		-0.0746895		
7.12		-0.0747563		
7.13		-0.074823		
7.14		-0.0748896		
7.15		-0.0749561		
7.16		-0.0750224		
7.17		-0.0750886		
7.18		-0.0751546		
7.19		-0.0752205		
7.2		-0.0752863		
7.21		-0.075352		
7.22		-0.0754175		
7.23		-0.0754829		
7.24		-0.0755482		
7.25		-0.0756134		
7.26		-0.0756784		
7.27		-0.0757433		
7.28		-0.075808		
7.29		-0.0758727		
7.3		-0.0759372		
7.31		-0.0760015		
7.32		-0.0760658		
7.33		-0.0761299		
7.34		-0.0761939		
7.35		-0.0762577		
7.36		-0.0763215		
7.37		-0.0763851		
7.38		-0.0764486		
7.39		-0.0765119		
7.4		-0.0765751		
7.41		-0.0766382		
7.42		-0.0767012		
7.43		-0.076764		
7.44		-0.0768267		
7.45		-0.0768893		
7.46		-0.0769517		
7.47		-0.0770141		
7.48		-0.0770763		
7.49		-0.0771383		
7.5		-0.0772003		
7.51		-0.0772621		
7.52		-0.0773238		
7.53		-0.0773853		
7.54		-0.0774468		
7.55		-0.0775081		
7.56		-0.0775693		
7.57		-0.0776303		
7.58		-0.0776912		
7.59		-0.0777521		
7.6		-0.0778127		
7.61		-0.0778733		
7.62		-0.0779337		
7.63		-0.077994		
7.64		-0.0780542		
7.65		-0.0781142		
7.66		-0.0781741		
7.67		-0.0782339		
7.68		-0.0782936		
7.69		-0.0783531		
7.7		-0.0784125		
7.71		-0.0784718		
7.72		-0.078531		
7.73		-0.07859		
7.74		-0.078649		
7.75		-0.0787078		
7.76		-0.0787664		
7.77		-0.078825		
7.78		-0.0788834		
7.79		-0.0789417		
7.8		-0.0789999		
7.81		-0.0790579		
7.82		-0.0791158		
7.83		-0.0791736		
7.84		-0.0792313		
7.85		-0.0792888		
7.86		-0.0793463		
7.87		-0.0794036		
7.88		-0.0794608		
7.89		-0.0795178		
7.9		-0.0795748		
7.91		-0.0796316		
7.92		-0.0796883		
7.93		-0.0797448		
7.94		-0.0798013		
7.95		-0.0798576		
7.96		-0.0799138		
7.97		-0.0799699		
7.98		-0.0800258		
7.99		-0.0800817		
8		-0.0801374		
8.01		-0.080193		
8.02		-0.0802484		
8.03		-0.0803038		
8.04		-0.080359		
8.05		-0.0804141		
8.06		-0.0804691		
8.07		-0.080524		
8.08		-0.0805787		
8.09		-0.0806333		
8.1		-0.0806879		
8.11		-0.0807422		
8.12		-0.0807965		
8.13		-0.0808506		
8.14		-0.0809047		
8.15		-0.0809586		
8.16		-0.0810124		
8.17		-0.081066		
8.18		-0.0811196		
8.19		-0.081173		
8.2		-0.0812263		
8.21		-0.0812795		
8.22		-0.0813326		
8.23		-0.0813855		
8.24		-0.0814384		
8.25		-0.0814911		
8.26		-0.0815437		
8.27		-0.0815962		
8.28		-0.0816485		
8.29		-0.0817008		
8.3		-0.0817529		
8.31		-0.0818049		
8.32		-0.0818568		
8.33		-0.0819086		
8.34		-0.0819603		
8.35		-0.0820118		
8.36		-0.0820633		
8.37		-0.0821146		
8.38		-0.0821658		
8.39		-0.0822169		
8.4		-0.0822678		
8.41		-0.0823187		
8.42		-0.0823694		
8.43		-0.08242		
8.44		-0.0824705		
8.45		-0.0825209		
8.46		-0.0825712		
8.47		-0.0826214		
8.48		-0.0826714		
8.49		-0.0827213		
8.5		-0.0827712		
8.51		-0.0828209		
8.52		-0.0828705		
8.53		-0.0829199		
8.54		-0.0829693		
8.55		-0.0830186		
8.56		-0.0830677		
8.57		-0.0831167		
8.58		-0.0831656		
8.59		-0.0832144		
8.6		-0.0832631		
8.61		-0.0833117		
8.62		-0.0833602		
8.63		-0.0834085		
8.64		-0.0834568		
8.65		-0.0835049		
8.66		-0.0835529		
8.67		-0.0836008		
8.68		-0.0836486		
8.69		-0.0836963		
8.7		-0.0837439		
8.71		-0.0837913		
8.72		-0.0838387		
8.73		-0.0838859		
8.74		-0.0839331		
8.75		-0.0839801		
8.76		-0.084027		
8.77		-0.0840738		
8.78		-0.0841205		
8.79		-0.0841671		
8.8		-0.0842136		
8.81		-0.08426		
8.82		-0.0843062		
8.83		-0.0843524		
8.84		-0.0843984		
8.85		-0.0844444		
8.86		-0.0844902		
8.87		-0.0845359		
8.88		-0.0845816		
8.89		-0.0846271		
8.9		-0.0846725		
8.91		-0.0847178		
8.92		-0.084763		
8.93		-0.084808		
8.94		-0.084853		
8.95		-0.0848979		
8.96		-0.0849427		
8.97		-0.0849873		
8.98		-0.0850319		
8.99		-0.0850763		
9		-0.0851207		
9.01		-0.0851649		
9.02		-0.0852091		
9.03		-0.0852531		
9.04		-0.085297		
9.05		-0.0853408		
9.06		-0.0853846		
9.07		-0.0854282		
9.08		-0.0854717		
9.09		-0.0855151		
9.1		-0.0855584		
9.11		-0.0856016		
9.12		-0.0856447		
9.13		-0.0856877		
9.14		-0.0857306		
9.15		-0.0857734		
9.16		-0.0858161		
9.17		-0.0858587		
9.18		-0.0859012		
9.19		-0.0859436		
9.2		-0.0859859		
9.21		-0.0860281		
9.22		-0.0860701		
9.23		-0.0861121		
9.24		-0.086154		
9.25		-0.0861958		
9.26		-0.0862375		
9.27		-0.0862791		
9.28		-0.0863206		
9.29		-0.086362		
9.3		-0.0864033		
9.31		-0.0864445		
9.32		-0.0864856		
9.33		-0.0865266		
9.34		-0.0865675		
9.35		-0.0866083		
9.36		-0.086649		
9.37		-0.0866896		
9.38		-0.0867301		
9.39		-0.0867705		
9.4		-0.0868108		
9.41		-0.086851		
9.42		-0.0868911		
9.43		-0.0869312		
9.44		-0.0869711		
9.45		-0.0870109		
9.46		-0.0870507		
9.47		-0.0870903		
9.48		-0.0871299		
9.49		-0.0871693		
9.5		-0.0872087		
9.51		-0.087248		
9.52		-0.0872871		
9.53		-0.0873262		
9.54		-0.0873652		
9.55		-0.0874041		
9.56		-0.0874429		
9.57		-0.0874816		
9.58		-0.0875202		
9.59		-0.0875587		
9.6		-0.0875971		
9.61		-0.0876355		
9.62		-0.0876737		
9.63		-0.0877119		
9.64		-0.0877499		
9.65		-0.0877879		
9.66		-0.0878258		
9.67		-0.0878636		
9.68		-0.0879013		
9.69		-0.0879389		
9.7		-0.0879764		
9.71		-0.0880138		
9.72		-0.0880512		
9.73		-0.0880884		
9.74		-0.0881256		
9.75		-0.0881626		
9.76		-0.0881996		
9.77		-0.0882365		
9.78		-0.0882733		
9.79		-0.08831		
9.8		-0.0883467		
9.81		-0.0883832		
9.82		-0.0884197		
9.83		-0.088456		
9.84		-0.0884923		
9.85		-0.0885285		
9.86		-0.0885646		
9.87		-0.0886006		
9.88		-0.0886366		
9.89		-0.0886724		
9.9		-0.0887082		
9.91		-0.0887439		
9.92		-0.0887795		
9.93		-0.088815		
9.94		-0.0888504		
9.95		-0.0888858		
9.96		-0.088921		
9.97		-0.0889562		
9.98		-0.0889913		
9.99		-0.0890263		
10		-0.0890612		
10.01		-0.0890961		
10.02		-0.0891308		
10.03		-0.0891655		
10.04		-0.0892001		
10.05		-0.0892346		
10.06		-0.089269		
10.07		-0.0893034		
10.08		-0.0893377		
10.09		-0.0893719		
10.1		-0.089406		
10.11		-0.08944		
10.12		-0.0894739		
10.13		-0.0895078		
10.14		-0.0895416		
10.15		-0.0895753		
10.16		-0.089609		
10.17		-0.0896425		
10.18		-0.089676		
10.19		-0.0897094		
10.2		-0.0897427		
10.21		-0.0897759		
10.22		-0.0898091		
10.23		-0.0898422		
10.24		-0.0898752		
10.25		-0.0899081		
10.26		-0.089941		
10.27		-0.0899738		
10.28		-0.0900065		
10.29		-0.0900391		
10.3		-0.0900717		
10.31		-0.0901042		
10.32		-0.0901366		
10.33		-0.0901689		
10.34		-0.0902012		
10.35		-0.0902333		
10.36		-0.0902654		
10.37		-0.0902975		
10.38		-0.0903294		
10.39		-0.0903613		
10.4		-0.0903931		
10.41		-0.0904249		
10.42		-0.0904566		
10.43		-0.0904882		
10.44		-0.0905197		
10.45		-0.0905511		
10.46		-0.0905825		
10.47		-0.0906138		
10.48		-0.0906451		
10.49		-0.0906763		
10.5		-0.0907074		
10.51		-0.0907384		
10.52		-0.0907694		
10.53		-0.0908003		
10.54		-0.0908311		
10.55		-0.0908619		
10.56		-0.0908925		
10.57		-0.0909232		
10.58		-0.0909537		
10.59		-0.0909842		
10.6		-0.0910146		
10.61		-0.091045		
10.62		-0.0910753		
10.63		-0.0911055		
10.64		-0.0911356		
10.65		-0.0911657		
10.66		-0.0911958		
10.67		-0.0912257		
10.68		-0.0912556		
10.69		-0.0912854		
10.7		-0.0913152		
10.71		-0.0913449		
10.72		-0.0913745		
10.73		-0.0914041		
10.74		-0.0914336		
10.75		-0.091463		
10.76		-0.0914924		
10.77		-0.0915217		
10.78		-0.091551		
10.79		-0.0915802		
10.8		-0.0916093		
10.81		-0.0916384		
10.82		-0.0916674		
10.83		-0.0916964		
10.84		-0.0917253		
10.85		-0.0917541		
10.86		-0.0917829		
