tau [fm]		pi [fm^-4]
0.25		0
0.26		6.01684		
0.27		11.0551		
0.28		15.2782		
0.29		18.8191		
0.3		21.7864		
0.31		24.2694		
0.32		26.342		
0.33		28.0657		
0.34		29.4917		
0.35		30.6633		
0.36		31.6167		
0.37		32.3827		
0.38		32.9874		
0.39		33.453		
0.4		33.7985		
0.41		34.0404		
0.42		34.1925		
0.43		34.2671		
0.44		34.2746		
0.45		34.224		
0.46		34.1231		
0.47		33.9789		
0.48		33.7973		
0.49		33.5835		
0.5		33.3421		
0.51		33.077		
0.52		32.7917		
0.53		32.4892		
0.54		32.1724		
0.55		31.8434		
0.56		31.5045		
0.57		31.1575		
0.58		30.8039		
0.59		30.4451		
0.6		30.0825		
0.61		29.7171		
0.62		29.3499		
0.63		28.9818		
0.64		28.6134		
0.65		28.2455		
0.66		27.8787		
0.67		27.5133		
0.68		27.15		
0.69		26.7891		
0.7		26.4308		
0.71		26.0755		
0.72		25.7235		
0.73		25.375		
0.74		25.0301		
0.75		24.6891		
0.76		24.352		
0.77		24.0189		
0.78		23.69		
0.79		23.3652		
0.8		23.0448		
0.81		22.7287		
0.82		22.4169		
0.83		22.1095		
0.84		21.8064		
0.85		21.5077		
0.86		21.2134		
0.87		20.9234		
0.88		20.6378		
0.89		20.3565		
0.9		20.0794		
0.91		19.8066		
0.92		19.5379		
0.93		19.2734		
0.94		19.0131		
0.95		18.7568		
0.96		18.5045		
0.97		18.2562		
0.98		18.0118		
0.99		17.7713		
1		17.5346		
1.01		17.3016		
1.02		17.0723		
1.03		16.8467		
1.04		16.6247		
1.05		16.4062		
1.06		16.1912		
1.07		15.9797		
1.08		15.7715		
1.09		15.5666		
1.1		15.365		
1.11		15.1666		
1.12		14.9713		
1.13		14.7792		
1.14		14.5901		
1.15		14.404		
1.16		14.2208		
1.17		14.0405		
1.18		13.8631		
1.19		13.6885		
1.2		13.5166		
1.21		13.3474		
1.22		13.1809		
1.23		13.0169		
1.24		12.8556		
1.25		12.6967		
1.26		12.5403		
1.27		12.3863		
1.28		12.2348		
1.29		12.0855		
1.3		11.9386		
1.31		11.7939		
1.32		11.6514		
1.33		11.5111		
1.34		11.373		
1.35		11.2369		
1.36		11.1029		
1.37		10.971		
1.38		10.841		
1.39		10.713		
1.4		10.5869		
1.41		10.4627		
1.42		10.3404		
1.43		10.2198		
1.44		10.1011		
1.45		9.98415		
1.46		9.86891		
1.47		9.75537		
1.48		9.6435		
1.49		9.53327		
1.5		9.42465		
1.51		9.31761		
1.52		9.21213		
1.53		9.10818		
1.54		9.00573		
1.55		8.90476		
1.56		8.80524		
1.57		8.70714		
1.58		8.61045		
1.59		8.51514		
1.6		8.42118		
1.61		8.32855		
1.62		8.23723		
1.63		8.1472		
1.64		8.05844		
1.65		7.97092		
1.66		7.88462		
1.67		7.79953		
1.68		7.71561		
1.69		7.63287		
1.7		7.55126		
1.71		7.47078		
1.72		7.39141		
1.73		7.31312		
1.74		7.2359		
1.75		7.15974		
1.76		7.08461		
1.77		7.0105		
1.78		6.93739		
1.79		6.86527		
1.8		6.79411		
1.81		6.72391		
1.82		6.65465		
1.83		6.58631		
1.84		6.51888		
1.85		6.45234		
1.86		6.38668		
1.87		6.32189		
1.88		6.25795		
1.89		6.19485		
1.9		6.13257		
1.91		6.0711		
1.92		6.01044		
1.93		5.95056		
1.94		5.89145		
1.95		5.83311		
1.96		5.77552		
1.97		5.71866		
1.98		5.66254		
1.99		5.60713		
2		5.55242		
2.01		5.49841		
2.02		5.44508		
2.03		5.39243		
2.04		5.34044		
2.05		5.2891		
2.06		5.2384		
2.07		5.18834		
2.08		5.1389		
2.09		5.09008		
2.1		5.04186		
2.11		4.99423		
2.12		4.94719		
2.13		4.90074		
2.14		4.85485		
2.15		4.80952		
2.16		4.76474		
2.17		4.72051		
2.18		4.67682		
2.19		4.63365		
2.2		4.59101		
2.21		4.54888		
2.22		4.50726		
2.23		4.46613		
2.24		4.4255		
2.25		4.38535		
2.26		4.34567		
2.27		4.30647		
2.28		4.26773		
2.29		4.22945		
2.3		4.19162		
2.31		4.15423		
2.32		4.11728		
2.33		4.08077		
2.34		4.04467		
2.35		4.009		
2.36		3.97374		
2.37		3.93889		
2.38		3.90444		
2.39		3.87039		
2.4		3.83672		
2.41		3.80345		
2.42		3.77055		
2.43		3.73803		
2.44		3.70587		
2.45		3.67409		
2.46		3.64266		
2.47		3.61158		
2.48		3.58086		
2.49		3.55048		
2.5		3.52044		
2.51		3.49073		
2.52		3.46136		
2.53		3.43231		
2.54		3.40359		
2.55		3.37518		
2.56		3.34709		
2.57		3.31931		
2.58		3.29183		
2.59		3.26465		
2.6		3.23777		
2.61		3.21118		
2.62		3.18489		
2.63		3.15887		
2.64		3.13314		
2.65		3.10769		
2.66		3.08251		
2.67		3.0576		
2.68		3.03296		
2.69		3.00858		
2.7		2.98447		
2.71		2.96061		
2.72		2.937		
2.73		2.91365		
2.74		2.89054		
2.75		2.86767		
2.76		2.84505		
2.77		2.82266		
2.78		2.80051		
2.79		2.77859		
2.8		2.75689		
2.81		2.73543		
2.82		2.71418		
2.83		2.69316		
2.84		2.67235		
2.85		2.65176		
2.86		2.63138		
2.87		2.61121		
2.88		2.59125		
2.89		2.57149		
2.9		2.55193		
2.91		2.53257		
2.92		2.5134		
2.93		2.49443		
2.94		2.47566		
2.95		2.45707		
2.96		2.43867		
2.97		2.42045		
2.98		2.40241		
2.99		2.38456		
3		2.36688		
3.01		2.34938		
3.02		2.33205		
3.03		2.3149		
3.04		2.29791		
3.05		2.28109		
3.06		2.26444		
3.07		2.24795		
3.08		2.23162		
3.09		2.21545		
3.1		2.19944		
3.11		2.18358		
3.12		2.16788		
3.13		2.15233		
3.14		2.13693		
3.15		2.12168		
3.16		2.10657		
3.17		2.09161		
3.18		2.0768		
3.19		2.06212		
3.2		2.04759		
3.21		2.03319		
3.22		2.01893		
3.23		2.0048		
3.24		1.99081		
3.25		1.97695		
3.26		1.96322		
3.27		1.94962		
3.28		1.93615		
3.29		1.9228		
3.3		1.90958		
3.31		1.89648		
3.32		1.8835		
3.33		1.87064		
3.34		1.85791		
3.35		1.84529		
3.36		1.83278		
3.37		1.82039		
3.38		1.80811		
3.39		1.79595		
3.4		1.7839		
3.41		1.77195		
3.42		1.76012		
3.43		1.74839		
3.44		1.73677		
3.45		1.72526		
3.46		1.71384		
3.47		1.70253		
3.48		1.69133		
3.49		1.68022		
3.5		1.66921		
3.51		1.6583		
3.52		1.64749		
3.53		1.63677		
3.54		1.62615		
3.55		1.61562		
3.56		1.60519		
3.57		1.59484		
3.58		1.58459		
3.59		1.57443		
3.6		1.56436		
3.61		1.55437		
3.62		1.54447		
3.63		1.53466		
3.64		1.52493		
3.65		1.51529		
3.66		1.50573		
3.67		1.49626		
3.68		1.48686		
3.69		1.47755		
3.7		1.46831		
3.71		1.45916		
3.72		1.45008		
3.73		1.44108		
3.74		1.43216		
3.75		1.42331		
3.76		1.41454		
3.77		1.40584		
3.78		1.39721		
3.79		1.38866		
3.8		1.38018		
3.81		1.37177		
3.82		1.36343		
3.83		1.35516		
3.84		1.34696		
3.85		1.33883		
3.86		1.33076		
3.87		1.32276		
3.88		1.31483		
3.89		1.30696		
3.9		1.29916		
3.91		1.29142		
3.92		1.28375		
3.93		1.27614		
3.94		1.26859		
3.95		1.2611		
3.96		1.25367		
3.97		1.24631		
3.98		1.239		
3.99		1.23175		
4		1.22456		
4.01		1.21743		
4.02		1.21035		
4.03		1.20334		
4.04		1.19638		
4.05		1.18947		
4.06		1.18262		
4.07		1.17582		
4.08		1.16908		
4.09		1.16239		
4.1		1.15576		
4.11		1.14917		
4.12		1.14264		
4.13		1.13616		
4.14		1.12973		
4.15		1.12335		
4.16		1.11702		
4.17		1.11074		
4.18		1.10451		
4.19		1.09833		
4.2		1.09219		
4.21		1.08611		
4.22		1.08007		
4.23		1.07407		
4.24		1.06813		
4.25		1.06222		
4.26		1.05637		
4.27		1.05056		
4.28		1.04479		
4.29		1.03906		
4.3		1.03338		
4.31		1.02775		
4.32		1.02215		
4.33		1.0166		
4.34		1.01109		
4.35		1.00562		
4.36		1.0002		
4.37		0.994811		
4.38		0.989464		
4.39		0.984158		
4.4		0.978892		
4.41		0.973664		
4.42		0.968476		
4.43		0.963326		
4.44		0.958214		
4.45		0.95314		
4.46		0.948103		
4.47		0.943103		
4.48		0.938141		
4.49		0.933214		
4.5		0.928324		
4.51		0.923469		
4.52		0.91865		
4.53		0.913865		
4.54		0.909116		
4.55		0.904401		
4.56		0.89972		
4.57		0.895073		
4.58		0.89046		
4.59		0.885879		
4.6		0.881332		
4.61		0.876817		
4.62		0.872334		
4.63		0.867884		
4.64		0.863465		
4.65		0.859078		
4.66		0.854722		
4.67		0.850396		
4.68		0.846102		
4.69		0.841837		
4.7		0.837603		
4.71		0.833399		
4.72		0.829224		
4.73		0.825078		
4.74		0.820962		
4.75		0.816874		
4.76		0.812814		
4.77		0.808783		
4.78		0.80478		
4.79		0.800805		
4.8		0.796857		
4.81		0.792936		
4.82		0.789043		
4.83		0.785176		
4.84		0.781336		
4.85		0.777522		
4.86		0.773734		
4.87		0.769973		
4.88		0.766236		
4.89		0.762526		
4.9		0.75884		
4.91		0.75518		
4.92		0.751544		
4.93		0.747933		
4.94		0.744346		
4.95		0.740784		
4.96		0.737245		
4.97		0.73373		
4.98		0.730239		
4.99		0.726771		
5		0.723326		
5.01		0.719904		
5.02		0.716505		
5.03		0.713128		
5.04		0.709774		
5.05		0.706442		
5.06		0.703132		
5.07		0.699844		
5.08		0.696577		
5.09		0.693332		
5.1		0.690108		
5.11		0.686906		
5.12		0.683724		
5.13		0.680563		
5.14		0.677422		
5.15		0.674302		
5.16		0.671202		
5.17		0.668123		
5.18		0.665063		
5.19		0.662023		
5.2		0.659002		
5.21		0.656001		
5.22		0.653019		
5.23		0.650057		
5.24		0.647113		
5.25		0.644188		
5.26		0.641282		
5.27		0.638394		
5.28		0.635524		
5.29		0.632673		
5.3		0.62984		
5.31		0.627024		
5.32		0.624227		
5.33		0.621447		
5.34		0.618684		
5.35		0.615939		
5.36		0.613211		
5.37		0.6105		
5.38		0.607806		
5.39		0.605129		
5.4		0.602469		
5.41		0.599825		
5.42		0.597197		
5.43		0.594586		
5.44		0.591991		
5.45		0.589411		
5.46		0.586848		
5.47		0.584301		
5.48		0.581769		
5.49		0.579252		
5.5		0.576751		
5.51		0.574265		
5.52		0.571795		
5.53		0.569339		
5.54		0.566899		
5.55		0.564473		
5.56		0.562062		
5.57		0.559665		
5.58		0.557283		
5.59		0.554915		
5.6		0.552562		
5.61		0.550222		
5.62		0.547897		
5.63		0.545585		
5.64		0.543288		
5.65		0.541004		
5.66		0.538733		
5.67		0.536476		
5.68		0.534233		
5.69		0.532003		
5.7		0.529786		
5.71		0.527582		
5.72		0.525391		
5.73		0.523213		
5.74		0.521048		
5.75		0.518895		
5.76		0.516755		
5.77		0.514628		
5.78		0.512513		
5.79		0.51041		
5.8		0.508319		
5.81		0.506241		
5.82		0.504175		
5.83		0.502121		
5.84		0.500078		
5.85		0.498047		
5.86		0.496028		
5.87		0.494021		
5.88		0.492025		
5.89		0.490041		
5.9		0.488068		
5.91		0.486106		
5.92		0.484156		
5.93		0.482216		
5.94		0.480288		
5.95		0.47837		
5.96		0.476464		
5.97		0.474568		
5.98		0.472683		
5.99		0.470808		
6		0.468944		
6.01		0.467091		
6.02		0.465248		
6.03		0.463415		
6.04		0.461593		
6.05		0.45978		
6.06		0.457978		
6.07		0.456186		
6.08		0.454404		
6.09		0.452631		
6.1		0.450869		
6.11		0.449116		
6.12		0.447373		
6.13		0.44564		
6.14		0.443916		
6.15		0.442202		
6.16		0.440497		
6.17		0.438801		
6.18		0.437115		
6.19		0.435438		
6.2		0.43377		
6.21		0.432111		
6.22		0.430461		
6.23		0.42882		
6.24		0.427188		
6.25		0.425565		
6.26		0.42395		
6.27		0.422344		
6.28		0.420747		
6.29		0.419159		
6.3		0.417579		
6.31		0.416008		
6.32		0.414444		
6.33		0.41289		
6.34		0.411343		
6.35		0.409805		
6.36		0.408275		
6.37		0.406753		
6.38		0.40524		
6.39		0.403734		
6.4		0.402236		
6.41		0.400746		
6.42		0.399264		
6.43		0.39779		
6.44		0.396324		
6.45		0.394865		
6.46		0.393414		
6.47		0.39197		
6.48		0.390534		
6.49		0.389106		
6.5		0.387685		
6.51		0.386271		
6.52		0.384865		
6.53		0.383466		
6.54		0.382074		
6.55		0.380689		
6.56		0.379312		
6.57		0.377941		
6.58		0.376578		
6.59		0.375222		
6.6		0.373873		
6.61		0.37253		
6.62		0.371195		
6.63		0.369866		
6.64		0.368544		
6.65		0.367229		
6.66		0.36592		
6.67		0.364618		
6.68		0.363323		
6.69		0.362034		
6.7		0.360752		
6.71		0.359477		
6.72		0.358207		
6.73		0.356944		
6.74		0.355688		
6.75		0.354438		
6.76		0.353194		
6.77		0.351956		
6.78		0.350724		
6.79		0.349499		
6.8		0.34828		
6.81		0.347066		
6.82		0.345859		
6.83		0.344658		
6.84		0.343463		
6.85		0.342273		
6.86		0.34109		
6.87		0.339912		
6.88		0.33874		
6.89		0.337574		
6.9		0.336414		
6.91		0.335259		
6.92		0.33411		
6.93		0.332967		
6.94		0.331829		
6.95		0.330697		
6.96		0.32957		
6.97		0.328449		
6.98		0.327333		
6.99		0.326222		
7		0.325117		
7.01		0.324017		
7.02		0.322923		
7.03		0.321834		
7.04		0.32075		
7.05		0.319671		
7.06		0.318598		
7.07		0.31753		
7.08		0.316466		
7.09		0.315408		
7.1		0.314355		
7.11		0.313307		
7.12		0.312264		
7.13		0.311226		
7.14		0.310193		
7.15		0.309164		
7.16		0.308141		
7.17		0.307122		
7.18		0.306108		
7.19		0.305099		
7.2		0.304095		
7.21		0.303096		
7.22		0.302101		
7.23		0.30111		
7.24		0.300125		
7.25		0.299144		
7.26		0.298168		
7.27		0.297196		
7.28		0.296228		
7.29		0.295266		
7.3		0.294307		
7.31		0.293353		
7.32		0.292404		
7.33		0.291459		
7.34		0.290518		
7.35		0.289582		
7.36		0.28865		
7.37		0.287722		
7.38		0.286798		
7.39		0.285879		
7.4		0.284964		
7.41		0.284053		
7.42		0.283146		
7.43		0.282244		
7.44		0.281345		
7.45		0.280451		
7.46		0.279561		
7.47		0.278674		
7.48		0.277792		
7.49		0.276914		
7.5		0.276039		
7.51		0.275169		
7.52		0.274303		
7.53		0.27344		
7.54		0.272581		
7.55		0.271727		
7.56		0.270876		
7.57		0.270028		
7.58		0.269185		
7.59		0.268345		
7.6		0.267509		
7.61		0.266677		
7.62		0.265849		
7.63		0.265024		
7.64		0.264203		
7.65		0.263385		
7.66		0.262572		
7.67		0.261761		
7.68		0.260955		
7.69		0.260151		
7.7		0.259352		
7.71		0.258556		
7.72		0.257763		
7.73		0.256974		
7.74		0.256188		
7.75		0.255406		
7.76		0.254627		
7.77		0.253852		
7.78		0.25308		
7.79		0.252311		
7.8		0.251546		
7.81		0.250784		
7.82		0.250025		
7.83		0.249269		
7.84		0.248517		
7.85		0.247768		
7.86		0.247023		
7.87		0.24628		
7.88		0.245541		
7.89		0.244805		
7.9		0.244072		
7.91		0.243342		
7.92		0.242615		
7.93		0.241892		
7.94		0.241171		
7.95		0.240454		
7.96		0.239739		
7.97		0.239028		
7.98		0.238319		
7.99		0.237614		
8		0.236912		
8.01		0.236212		
8.02		0.235516		
8.03		0.234822		
8.04		0.234132		
8.05		0.233444		
8.06		0.232759		
8.07		0.232078		
8.08		0.231398		
8.09		0.230722		
8.1		0.230049		
8.11		0.229378		
8.12		0.228711		
8.13		0.228046		
8.14		0.227383		
8.15		0.226724		
8.16		0.226067		
8.17		0.225413		
8.18		0.224762		
8.19		0.224113		
8.2		0.223467		
8.21		0.222824		
8.22		0.222183		
8.23		0.221545		
8.24		0.22091		
8.25		0.220277		
8.26		0.219647		
8.27		0.21902		
8.28		0.218395		
8.29		0.217772		
8.3		0.217152		
8.31		0.216535		
8.32		0.21592		
8.33		0.215308		
8.34		0.214698		
8.35		0.21409		
8.36		0.213485		
8.37		0.212883		
8.38		0.212283		
8.39		0.211685		
8.4		0.21109		
8.41		0.210497		
8.42		0.209907		
8.43		0.209318		
8.44		0.208733		
8.45		0.208149		
8.46		0.207568		
8.47		0.20699		
8.48		0.206413		
8.49		0.205839		
8.5		0.205267		
8.51		0.204698		
8.52		0.20413		
8.53		0.203565		
8.54		0.203002		
8.55		0.202442		
8.56		0.201884		
8.57		0.201327		
8.58		0.200773		
8.59		0.200222		
8.6		0.199672		
8.61		0.199125		
8.62		0.198579		
8.63		0.198036		
8.64		0.197495		
8.65		0.196956		
8.66		0.196419		
8.67		0.195885		
8.68		0.195352		
8.69		0.194821		
8.7		0.194293		
8.71		0.193766		
8.72		0.193242		
8.73		0.19272		
8.74		0.192199		
8.75		0.191681		
8.76		0.191165		
8.77		0.19065		
8.78		0.190138		
8.79		0.189628		
8.8		0.189119		
8.81		0.188613		
8.82		0.188108		
8.83		0.187606		
8.84		0.187105		
8.85		0.186606		
8.86		0.186109		
8.87		0.185614		
8.88		0.185121		
8.89		0.18463		
8.9		0.184141		
8.91		0.183653		
8.92		0.183168		
8.93		0.182684		
8.94		0.182202		
8.95		0.181722		
8.96		0.181244		
8.97		0.180767		
8.98		0.180292		
8.99		0.179819		
9		0.179348		
9.01		0.178879		
9.02		0.178411		
9.03		0.177945		
9.04		0.177481		
9.05		0.177019		
9.06		0.176558		
9.07		0.176099		
9.08		0.175642		
9.09		0.175187		
9.1		0.174733		
9.11		0.174281		
9.12		0.17383		
9.13		0.173381		
9.14		0.172934		
9.15		0.172489		
9.16		0.172045		
9.17		0.171603		
9.18		0.171162		
9.19		0.170723		
9.2		0.170286		
9.21		0.16985		
9.22		0.169416		
9.23		0.168983		
9.24		0.168552		
9.25		0.168123		
9.26		0.167695		
9.27		0.167269		
9.28		0.166844		
9.29		0.166421		
9.3		0.165999		
9.31		0.165579		
9.32		0.16516		
9.33		0.164743		
9.34		0.164328		
9.35		0.163914		
9.36		0.163501		
9.37		0.16309		
9.38		0.162681		
9.39		0.162272		
9.4		0.161866		
9.41		0.161461		
9.42		0.161057		
9.43		0.160655		
9.44		0.160254		
9.45		0.159854		
9.46		0.159456		
9.47		0.15906		
9.48		0.158665		
9.49		0.158271		
9.5		0.157879		
9.51		0.157488		
9.52		0.157098		
9.53		0.15671		
9.54		0.156323		
9.55		0.155938		
9.56		0.155554		
9.57		0.155171		
9.58		0.15479		
9.59		0.15441		
9.6		0.154031		
9.61		0.153653		
9.62		0.153277		
9.63		0.152903		
9.64		0.152529		
9.65		0.152157		
9.66		0.151787		
9.67		0.151417		
9.68		0.151049		
9.69		0.150682		
9.7		0.150316		
9.71		0.149952		
9.72		0.149589		
9.73		0.149227		
9.74		0.148866		
9.75		0.148507		
9.76		0.148149		
9.77		0.147792		
9.78		0.147437		
9.79		0.147082		
9.8		0.146729		
9.81		0.146377		
9.82		0.146026		
9.83		0.145677		
9.84		0.145328		
9.85		0.144981		
9.86		0.144635		
9.87		0.144291		
9.88		0.143947		
9.89		0.143605		
9.9		0.143263		
9.91		0.142923		
9.92		0.142584		
9.93		0.142247		
9.94		0.14191		
9.95		0.141574		
9.96		0.14124		
9.97		0.140907		
9.98		0.140575		
9.99		0.140244		
10		0.139914		
10.01		0.139585		
10.02		0.139258		
10.03		0.138931		
10.04		0.138606		
10.05		0.138281		
10.06		0.137958		
10.07		0.137636		
10.08		0.137315		
10.09		0.136995		
10.1		0.136676		
10.11		0.136358		
10.12		0.136041		
10.13		0.135726		
10.14		0.135411		
10.15		0.135097		
10.16		0.134785		
10.17		0.134473		
10.18		0.134162		
10.19		0.133853		
10.2		0.133544		
10.21		0.133237		
10.22		0.132931		
10.23		0.132625		
10.24		0.132321		
10.25		0.132017		
10.26		0.131715		
10.27		0.131413		
10.28		0.131113		
10.29		0.130813		
10.3		0.130515		
10.31		0.130217		
10.32		0.129921		
10.33		0.129625		
10.34		0.129331		
10.35		0.129037		
10.36		0.128744		
10.37		0.128453		
10.38		0.128162		
10.39		0.127872		
10.4		0.127583		
10.41		0.127295		
10.42		0.127008		
10.43		0.126722		
10.44		0.126437		
10.45		0.126153		
10.46		0.125869		
10.47		0.125587		
10.48		0.125306		
10.49		0.125025		
10.5		0.124745		
10.51		0.124466		
10.52		0.124189		
10.53		0.123911		
10.54		0.123635		
10.55		0.12336		
10.56		0.123086		
10.57		0.122812		
10.58		0.12254		
10.59		0.122268		
10.6		0.121997		
10.61		0.121727		
10.62		0.121458		
10.63		0.121189		
10.64		0.120922		
10.65		0.120655		
10.66		0.12039		
10.67		0.120125		
10.68		0.119861		
10.69		0.119597		
10.7		0.119335		
10.71		0.119073		
10.72		0.118813		
10.73		0.118553		
10.74		0.118293		
10.75		0.118035		
10.76		0.117778		
10.77		0.117521		
10.78		0.117265		
10.79		0.11701		
10.8		0.116756		
10.81		0.116502		
10.82		0.116249		
10.83		0.115997		
10.84		0.115746		
10.85		0.115496		
10.86		0.115246		
10.87		0.114997		
10.88		0.114749		
10.89		0.114502		
10.9		0.114256		
10.91		0.11401		
10.92		0.113765		
10.93		0.113521		
10.94		0.113277		
10.95		0.113034		
10.96		0.112792		
10.97		0.112551		
10.98		0.112311		
10.99		0.112071		
11		0.111832		
11.01		0.111593		
11.02		0.111356		
11.03		0.111119		
11.04		0.110883		
11.05		0.110647		
11.06		0.110413		
11.07		0.110179		
11.08		0.109946		
11.09		0.109713		
11.1		0.109481		
11.11		0.10925		
11.12		0.10902		
11.13		0.10879		
11.14		0.108561		
11.15		0.108332		
11.16		0.108105		
11.17		0.107878		
11.18		0.107652		
11.19		0.107426		
11.2		0.107201		
11.21		0.106977		
11.22		0.106753		
11.23		0.10653		
11.24		0.106308		
11.25		0.106086		
11.26		0.105866		
11.27		0.105645		
11.28		0.105426		
11.29		0.105207		
11.3		0.104988		
11.31		0.104771		
11.32		0.104554		
11.33		0.104337		
11.34		0.104122		
11.35		0.103907		
11.36		0.103692		
11.37		0.103479		
11.38		0.103265		
11.39		0.103053		
11.4		0.102841		
11.41		0.10263		
11.42		0.102419		
11.43		0.102209		
11.44		0.102		
11.45		0.101791		
11.46		0.101583		
11.47		0.101375		
11.48		0.101168		
11.49		0.100962		
11.5		0.100756		
11.51		0.100551		
11.52		0.100346		
11.53		0.100142		
11.54		0.0999391		
11.55		0.0997363		
11.56		0.0995342		
11.57		0.0993326		
11.58		0.0991316		
11.59		0.0989312		
11.6		0.0987314		
11.61		0.0985322		
11.62		0.0983335		
11.63		0.0981354		
11.64		0.0979379		
11.65		0.097741		
11.66		0.0975446		
11.67		0.0973488		
11.68		0.0971535		
11.69		0.0969589		
11.7		0.0967648		
11.71		0.0965712		
11.72		0.0963782		
11.73		0.0961857		
11.74		0.0959938		
11.75		0.0958025		
11.76		0.0956117		
11.77		0.0954214		
11.78		0.0952317		
11.79		0.0950426		
11.8		0.0948539		
11.81		0.0946659		
11.82		0.0944783		
11.83		0.0942913		
11.84		0.0941048		
11.85		0.0939188		
11.86		0.0937334		
11.87		0.0935485		
11.88		0.0933641		
11.89		0.0931803		
11.9		0.0929969		
11.91		0.0928141		
11.92		0.0926318		
11.93		0.09245		
11.94		0.0922688		
11.95		0.092088		
11.96		0.0919078		
11.97		0.091728		
11.98		0.0915488		
11.99		0.09137		
12		0.0911918		
12.01		0.0910141		
12.02		0.0908368		
12.03		0.0906601		
12.04		0.0904838		
12.05		0.0903081		
12.06		0.0901328		
12.07		0.089958		
12.08		0.0897837		
12.09		0.0896099		
12.1		0.0894366		
12.11		0.0892638		
12.12		0.0890914		
12.13		0.0889196		
12.14		0.0887481		
12.15		0.0885772		
12.16		0.0884068		
12.17		0.0882368		
12.18		0.0880673		
12.19		0.0878982		
12.2		0.0877296		
12.21		0.0875615		
12.22		0.0873939		
