tau [fm]		Pi [fm^-4]
0.25		22.4387
0.26		21.7716		
0.27		21.1075		
0.28		20.4488		
0.29		19.7975		
0.3		19.1554		
0.31		18.5238		
0.32		17.9038		
0.33		17.2963		
0.34		16.7019		
0.35		16.1212		
0.36		15.5546		
0.37		15.0024		
0.38		14.4647		
0.39		13.9418		
0.4		13.4335		
0.41		12.94		
0.42		12.4611		
0.43		11.9967		
0.44		11.5466		
0.45		11.1107		
0.46		10.6888		
0.47		10.2806		
0.48		9.88591		
0.49		9.5044		
0.5		9.13584		
0.51		8.77992		
0.52		8.43635		
0.53		8.10484		
0.54		7.78507		
0.55		7.47674		
0.56		7.17954		
0.57		6.89316		
0.58		6.6173		
0.59		6.35164		
0.6		6.09589		
0.61		5.84974		
0.62		5.61289		
0.63		5.38506		
0.64		5.16596		
0.65		4.9553		
0.66		4.7528		
0.67		4.55819		
0.68		4.37121		
0.69		4.19159		
0.7		4.01908		
0.71		3.85342		
0.72		3.69439		
0.73		3.54174		
0.74		3.39524		
0.75		3.25467		
0.76		3.1198		
0.77		2.99044		
0.78		2.86636		
0.79		2.74739		
0.8		2.63331		
0.81		2.52394		
0.82		2.41911		
0.83		2.31864		
0.84		2.22236		
0.85		2.1301		
0.86		2.0417		
0.87		1.95702		
0.88		1.8759		
0.89		1.7982		
0.9		1.72379		
0.91		1.65252		
0.92		1.58428		
0.93		1.51894		
0.94		1.45638		
0.95		1.39649		
0.96		1.33915		
0.97		1.28426		
0.98		1.23171		
0.99		1.18142		
1		1.13328		
1.01		1.0872		
1.02		1.0431		
1.03		1.00089		
1.04		0.960492		
1.05		0.921829		
1.06		0.884826		
1.07		0.849411		
1.08		0.815517		
1.09		0.783077		
1.1		0.75203		
1.11		0.722313		
1.12		0.693871		
1.13		0.666646		
1.14		0.640587		
1.15		0.615641		
1.16		0.591762		
1.17		0.5689		
1.18		0.547013		
1.19		0.526057		
1.2		0.505991		
1.21		0.486776		
1.22		0.468374		
1.23		0.45075		
1.24		0.433869		
1.25		0.417699		
1.26		0.402207		
1.27		0.387364		
1.28		0.373141		
1.29		0.359511		
1.3		0.346448		
1.31		0.333926		
1.32		0.321921		
1.33		0.31041		
1.34		0.299373		
1.35		0.288787		
1.36		0.278632		
1.37		0.26889		
1.38		0.259543		
1.39		0.250572		
1.4		0.241962		
1.41		0.233697		
1.42		0.22576		
1.43		0.218139		
1.44		0.210819		
1.45		0.203786		
1.46		0.197029		
1.47		0.190535		
1.48		0.184293		
1.49		0.178291		
1.5		0.17252		
1.51		0.16697		
1.52		0.16163		
1.53		0.156492		
1.54		0.151547		
1.55		0.146786		
1.56		0.142203		
1.57		0.137789		
1.58		0.133537		
1.59		0.12944		
1.6		0.125492		
1.61		0.121686		
1.62		0.118017		
1.63		0.114479		
1.64		0.111065		
1.65		0.107772		
1.66		0.104594		
1.67		0.101526		
1.68		0.0985633		
1.69		0.0957024		
1.7		0.0929388		
1.71		0.0902685		
1.72		0.0876878		
1.73		0.085193		
1.74		0.0827807		
1.75		0.0804476		
1.76		0.0781905		
1.77		0.0760065		
1.78		0.0738926		
1.79		0.0718461		
1.8		0.0698644		
1.81		0.0679449		
1.82		0.0660853		
1.83		0.0642832		
1.84		0.0625365		
1.85		0.060843		
1.86		0.0592007		
1.87		0.0576078		
1.88		0.0560622		
1.89		0.0545624		
1.9		0.0531066		
1.91		0.0516931		
1.92		0.0503204		
1.93		0.0489871		
1.94		0.0476917		
1.95		0.0464328		
1.96		0.0452091		
1.97		0.0440195		
1.98		0.0428626		
1.99		0.0417373		
2		0.0406425		
2.01		0.0395772		
2.02		0.0385403		
2.03		0.0375308		
2.04		0.0365479		
2.05		0.0355906		
2.06		0.034658		
2.07		0.0337493		
2.08		0.0328638		
2.09		0.0320006		
2.1		0.031159		
2.11		0.0303383		
2.12		0.0295379		
2.13		0.028757		
2.14		0.027995		
2.15		0.0272514		
2.16		0.0265255		
2.17		0.0258168		
2.18		0.0251247		
2.19		0.0244487		
2.2		0.0237884		
2.21		0.0231431		
2.22		0.0225126		
2.23		0.0218962		
2.24		0.0212937		
2.25		0.0207045		
2.26		0.0201283		
2.27		0.0195646		
2.28		0.0190131		
2.29		0.0184735		
2.3		0.0179454		
2.31		0.0174284		
2.32		0.0169222		
2.33		0.0164266		
2.34		0.0159411		
2.35		0.0154656		
2.36		0.0149997		
2.37		0.0145432		
2.38		0.0140957		
2.39		0.0136571		
2.4		0.0132271		
2.41		0.0128055		
2.42		0.0123919		
2.43		0.0119863		
2.44		0.0115883		
2.45		0.0111978		
2.46		0.0108146		
2.47		0.0104384		
2.48		0.0100691		
2.49		0.00970652		
2.5		0.00935043		
2.51		0.00900069		
2.52		0.00865712		
2.53		0.00831956		
2.54		0.00798786		
2.55		0.00766185		
2.56		0.00734139		
2.57		0.00702634		
2.58		0.00671656		
2.59		0.00641192		
2.6		0.00611227		
2.61		0.00581749		
2.62		0.00552747		
2.63		0.00524207		
2.64		0.00496119		
2.65		0.00468471		
2.66		0.00441252		
2.67		0.00414451		
2.68		0.00388057		
2.69		0.00362062		
2.7		0.00336455		
2.71		0.00311226		
2.72		0.00286367		
2.73		0.00261867		
2.74		0.0023772		
2.75		0.00213915		
2.76		0.00190445		
2.77		0.00167302		
2.78		0.00144477		
2.79		0.00121964		
2.8		0.000997553		
2.81		0.000778429		
2.82		0.000562203		
2.83		0.000348806		
2.84		0.000138171		
2.85		-6.97644e-05		
2.86		-0.000275064		
2.87		-0.00047779		
2.88		-0.000678		
2.89		-0.000875754		
2.9		-0.00107111		
2.91		-0.00126411		
2.92		-0.00145483		
2.93		-0.0016433		
2.94		-0.00182959		
2.95		-0.00201373		
2.96		-0.00219578		
2.97		-0.00237579		
2.98		-0.0025538		
2.99		-0.00272985		
3		-0.00290399		
3.01		-0.00307626		
3.02		-0.00324671		
3.03		-0.00341537		
3.04		-0.00358227		
3.05		-0.00374747		
3.06		-0.003911		
3.07		-0.00407288		
3.08		-0.00423317		
3.09		-0.00439189		
3.1		-0.00454907		
3.11		-0.00470476		
3.12		-0.00485897		
3.13		-0.00501175		
3.14		-0.00516312		
3.15		-0.00531312		
3.16		-0.00546176		
3.17		-0.00560909		
3.18		-0.00575512		
3.19		-0.00589989		
3.2		-0.00604342		
3.21		-0.00618573		
3.22		-0.00632686		
3.23		-0.00646682		
3.24		-0.00660564		
3.25		-0.00674334		
3.26		-0.00687995		
3.27		-0.00701549		
3.28		-0.00714997		
3.29		-0.00728343		
3.3		-0.00741587		
3.31		-0.00754733		
3.32		-0.00767782		
3.33		-0.00780735		
3.34		-0.00793596		
3.35		-0.00806365		
3.36		-0.00819044		
3.37		-0.00831636		
3.38		-0.00844141		
3.39		-0.00856562		
3.4		-0.008689		
3.41		-0.00881157		
3.42		-0.00893335		
3.43		-0.00905433		
3.44		-0.00917456		
3.45		-0.00929403		
3.46		-0.00941276		
3.47		-0.00953076		
3.48		-0.00964805		
3.49		-0.00976465		
3.5		-0.00988056		
3.51		-0.00999579		
3.52		-0.0101104		
3.53		-0.0102243		
3.54		-0.0103376		
3.55		-0.0104502		
3.56		-0.0105623		
3.57		-0.0106737		
3.58		-0.0107846		
3.59		-0.0108948		
3.6		-0.0110045		
3.61		-0.0111137		
3.62		-0.0112222		
3.63		-0.0113303		
3.64		-0.0114378		
3.65		-0.0115447		
3.66		-0.0116512		
3.67		-0.0117571		
3.68		-0.0118626		
3.69		-0.0119676		
3.7		-0.012072		
3.71		-0.012176		
3.72		-0.0122796		
3.73		-0.0123826		
3.74		-0.0124853		
3.75		-0.0125874		
3.76		-0.0126892		
3.77		-0.0127905		
3.78		-0.0128913		
3.79		-0.0129918		
3.8		-0.0130919		
3.81		-0.0131915		
3.82		-0.0132907		
3.83		-0.0133896		
3.84		-0.0134881		
3.85		-0.0135862		
3.86		-0.0136839		
3.87		-0.0137812		
3.88		-0.0138782		
3.89		-0.0139748		
3.9		-0.014071		
3.91		-0.0141669		
3.92		-0.0142625		
3.93		-0.0143577		
3.94		-0.0144526		
3.95		-0.0145472		
3.96		-0.0146414		
3.97		-0.0147353		
3.98		-0.0148289		
3.99		-0.0149222		
4		-0.0150152		
4.01		-0.0151078		
4.02		-0.0152002		
4.03		-0.0152923		
4.04		-0.0153841		
4.05		-0.0154755		
4.06		-0.0155667		
4.07		-0.0156577		
4.08		-0.0157483		
4.09		-0.0158387		
4.1		-0.0159287		
4.11		-0.0160186		
4.12		-0.0161081		
4.13		-0.0161974		
4.14		-0.0162864		
4.15		-0.0163752		
4.16		-0.0164637		
4.17		-0.016552		
4.18		-0.01664		
4.19		-0.0167278		
4.2		-0.0168153		
4.21		-0.0169026		
4.22		-0.0169897		
4.23		-0.0170765		
4.24		-0.0171631		
4.25		-0.0172494		
4.26		-0.0173356		
4.27		-0.0174215		
4.28		-0.0175072		
4.29		-0.0175926		
4.3		-0.0176778		
4.31		-0.0177629		
4.32		-0.0178477		
4.33		-0.0179323		
4.34		-0.0180166		
4.35		-0.0181008		
4.36		-0.0181848		
4.37		-0.0182685		
4.38		-0.0183521		
4.39		-0.0184354		
4.4		-0.0185186		
4.41		-0.0186015		
4.42		-0.0186843		
4.43		-0.0187669		
4.44		-0.0188492		
4.45		-0.0189314		
4.46		-0.0190134		
4.47		-0.0190952		
4.48		-0.0191768		
4.49		-0.0192582		
4.5		-0.0193394		
4.51		-0.0194205		
4.52		-0.0195013		
4.53		-0.019582		
4.54		-0.0196625		
4.55		-0.0197429		
4.56		-0.019823		
4.57		-0.019903		
4.58		-0.0199828		
4.59		-0.0200624		
4.6		-0.0201419		
4.61		-0.0202212		
4.62		-0.0203003		
4.63		-0.0203792		
4.64		-0.020458		
4.65		-0.0205366		
4.66		-0.020615		
4.67		-0.0206933		
4.68		-0.0207714		
4.69		-0.0208494		
4.7		-0.0209271		
4.71		-0.0210048		
4.72		-0.0210822		
4.73		-0.0211595		
4.74		-0.0212367		
4.75		-0.0213137		
4.76		-0.0213905		
4.77		-0.0214672		
4.78		-0.0215437		
4.79		-0.02162		
4.8		-0.0216963		
4.81		-0.0217723		
4.82		-0.0218482		
4.83		-0.021924		
4.84		-0.0219995		
4.85		-0.022075		
4.86		-0.0221503		
4.87		-0.0222254		
4.88		-0.0223004		
4.89		-0.0223753		
4.9		-0.02245		
4.91		-0.0225245		
4.92		-0.022599		
4.93		-0.0226732		
4.94		-0.0227473		
4.95		-0.0228213		
4.96		-0.0228951		
4.97		-0.0229688		
4.98		-0.0230424		
4.99		-0.0231158		
5		-0.023189		
5.01		-0.0232621		
5.02		-0.0233351		
5.03		-0.0234079		
5.04		-0.0234806		
5.05		-0.0235532		
5.06		-0.0236256		
5.07		-0.0236979		
5.08		-0.02377		
5.09		-0.023842		
5.1		-0.0239139		
5.11		-0.0239856		
5.12		-0.0240572		
5.13		-0.0241287		
5.14		-0.0242		
5.15		-0.0242712		
5.16		-0.0243422		
5.17		-0.0244131		
5.18		-0.0244839		
5.19		-0.0245546		
5.2		-0.0246251		
5.21		-0.0246955		
5.22		-0.0247657		
5.23		-0.0248358		
5.24		-0.0249058		
5.25		-0.0249757		
5.26		-0.0250454		
5.27		-0.025115		
5.28		-0.0251844		
5.29		-0.0252538		
5.3		-0.025323		
5.31		-0.025392		
5.32		-0.025461		
5.33		-0.0255298		
5.34		-0.0255985		
5.35		-0.025667		
5.36		-0.0257354		
5.37		-0.0258037		
5.38		-0.0258719		
5.39		-0.0259399		
5.4		-0.0260078		
5.41		-0.0260756		
5.42		-0.0261433		
5.43		-0.0262108		
5.44		-0.0262782		
5.45		-0.0263455		
5.46		-0.0264127		
5.47		-0.0264797		
5.48		-0.0265466		
5.49		-0.0266134		
5.5		-0.02668		
5.51		-0.0267465		
5.52		-0.026813		
5.53		-0.0268792		
5.54		-0.0269454		
5.55		-0.0270114		
5.56		-0.0270773		
5.57		-0.0271431		
5.58		-0.0272088		
5.59		-0.0272743		
5.6		-0.0273397		
5.61		-0.027405		
5.62		-0.0274702		
5.63		-0.0275352		
5.64		-0.0276002		
5.65		-0.027665		
5.66		-0.0277297		
5.67		-0.0277942		
5.68		-0.0278587		
5.69		-0.027923		
5.7		-0.0279872		
5.71		-0.0280513		
5.72		-0.0281152		
5.73		-0.0281791		
5.74		-0.0282428		
5.75		-0.0283064		
5.76		-0.0283699		
5.77		-0.0284332		
5.78		-0.0284965		
5.79		-0.0285596		
5.8		-0.0286226		
5.81		-0.0286855		
5.82		-0.0287483		
5.83		-0.0288109		
5.84		-0.0288734		
5.85		-0.0289358		
5.86		-0.0289981		
5.87		-0.0290603		
5.88		-0.0291224		
5.89		-0.0291843		
5.9		-0.0292461		
5.91		-0.0293078		
5.92		-0.0293694		
5.93		-0.0294309		
5.94		-0.0294923		
5.95		-0.0295535		
5.96		-0.0296146		
5.97		-0.0296756		
5.98		-0.0297365		
5.99		-0.0297973		
6		-0.029858		
6.01		-0.0299185		
6.02		-0.0299789		
6.03		-0.0300393		
6.04		-0.0300995		
6.05		-0.0301595		
6.06		-0.0302195		
6.07		-0.0302794		
6.08		-0.0303391		
6.09		-0.0303987		
6.1		-0.0304582		
6.11		-0.0305176		
6.12		-0.0305769		
6.13		-0.0306361		
6.14		-0.0306952		
6.15		-0.0307541		
6.16		-0.0308129		
6.17		-0.0308717		
6.18		-0.0309303		
6.19		-0.0309888		
6.2		-0.0310471		
6.21		-0.0311054		
6.22		-0.0311636		
6.23		-0.0312216		
6.24		-0.0312795		
6.25		-0.0313373		
6.26		-0.031395		
6.27		-0.0314526		
6.28		-0.0315101		
6.29		-0.0315675		
6.3		-0.0316248		
6.31		-0.0316819		
6.32		-0.0317389		
6.33		-0.0317959		
6.34		-0.0318527		
6.35		-0.0319094		
6.36		-0.031966		
6.37		-0.0320225		
6.38		-0.0320789		
6.39		-0.0321351		
6.4		-0.0321913		
6.41		-0.0322473		
6.42		-0.0323033		
6.43		-0.0323591		
6.44		-0.0324148		
6.45		-0.0324704		
6.46		-0.0325259		
6.47		-0.0325813		
6.48		-0.0326366		
6.49		-0.0326918		
6.5		-0.0327468		
6.51		-0.0328018		
6.52		-0.0328566		
6.53		-0.0329114		
6.54		-0.032966		
6.55		-0.0330205		
6.56		-0.033075		
6.57		-0.0331293		
6.58		-0.0331835		
6.59		-0.0332376		
6.6		-0.0332916		
6.61		-0.0333455		
6.62		-0.0333992		
6.63		-0.0334529		
6.64		-0.0335065		
6.65		-0.0335599		
6.66		-0.0336133		
6.67		-0.0336665		
6.68		-0.0337196		
6.69		-0.0337727		
6.7		-0.0338256		
6.71		-0.0338784		
6.72		-0.0339311		
6.73		-0.0339838		
6.74		-0.0340363		
6.75		-0.0340887		
6.76		-0.034141		
6.77		-0.0341932		
6.78		-0.0342452		
6.79		-0.0342972		
6.8		-0.0343491		
6.81		-0.0344009		
6.82		-0.0344525		
6.83		-0.0345041		
6.84		-0.0345556		
6.85		-0.0346069		
6.86		-0.0346582		
6.87		-0.0347093		
6.88		-0.0347604		
6.89		-0.0348113		
6.9		-0.0348622		
6.91		-0.0349129		
6.92		-0.0349636		
6.93		-0.0350141		
6.94		-0.0350645		
6.95		-0.0351149		
6.96		-0.0351651		
6.97		-0.0352152		
6.98		-0.0352653		
6.99		-0.0353152		
7		-0.035365		
7.01		-0.0354147		
7.02		-0.0354643		
7.03		-0.0355139		
7.04		-0.0355633		
7.05		-0.0356126		
7.06		-0.0356618		
7.07		-0.0357109		
7.08		-0.03576		
7.09		-0.0358089		
7.1		-0.0358577		
7.11		-0.0359064		
7.12		-0.035955		
7.13		-0.0360035		
7.14		-0.036052		
7.15		-0.0361003		
7.16		-0.0361485		
7.17		-0.0361966		
7.18		-0.0362446		
7.19		-0.0362926		
7.2		-0.0363404		
7.21		-0.0363881		
7.22		-0.0364358		
7.23		-0.0364833		
7.24		-0.0365307		
7.25		-0.036578		
7.26		-0.0366253		
7.27		-0.0366724		
7.28		-0.0367195		
7.29		-0.0367664		
7.3		-0.0368133		
7.31		-0.03686		
7.32		-0.0369067		
7.33		-0.0369532		
7.34		-0.0369997		
7.35		-0.037046		
7.36		-0.0370923		
7.37		-0.0371385		
7.38		-0.0371845		
7.39		-0.0372305		
7.4		-0.0372764		
7.41		-0.0373222		
7.42		-0.0373679		
7.43		-0.0374135		
7.44		-0.037459		
7.45		-0.0375044		
7.46		-0.0375497		
7.47		-0.0375949		
7.48		-0.03764		
7.49		-0.0376851		
7.5		-0.03773		
7.51		-0.0377748		
7.52		-0.0378196		
7.53		-0.0378642		
7.54		-0.0379088		
7.55		-0.0379533		
7.56		-0.0379976		
7.57		-0.0380419		
7.58		-0.0380861		
7.59		-0.0381302		
7.6		-0.0381742		
7.61		-0.0382181		
7.62		-0.0382619		
7.63		-0.0383056		
7.64		-0.0383492		
7.65		-0.0383928		
7.66		-0.0384362		
7.67		-0.0384796		
7.68		-0.0385228		
7.69		-0.038566		
7.7		-0.0386091		
7.71		-0.0386521		
7.72		-0.038695		
7.73		-0.0387378		
7.74		-0.0387805		
7.75		-0.0388231		
7.76		-0.0388656		
7.77		-0.0389081		
7.78		-0.0389504		
7.79		-0.0389927		
7.8		-0.0390349		
7.81		-0.0390769		
7.82		-0.0391189		
7.83		-0.0391608		
7.84		-0.0392026		
7.85		-0.0392444		
7.86		-0.039286		
7.87		-0.0393275		
7.88		-0.039369		
7.89		-0.0394104		
7.9		-0.0394516		
7.91		-0.0394928		
7.92		-0.0395339		
7.93		-0.0395749		
7.94		-0.0396159		
7.95		-0.0396567		
7.96		-0.0396974		
7.97		-0.0397381		
7.98		-0.0397787		
7.99		-0.0398192		
8		-0.0398596		
8.01		-0.0398999		
8.02		-0.0399401		
8.03		-0.0399802		
8.04		-0.0400203		
8.05		-0.0400603		
8.06		-0.0401001		
8.07		-0.0401399		
8.08		-0.0401796		
8.09		-0.0402193		
8.1		-0.0402588		
8.11		-0.0402982		
8.12		-0.0403376		
8.13		-0.0403769		
8.14		-0.0404161		
8.15		-0.0404552		
8.16		-0.0404942		
8.17		-0.0405332		
8.18		-0.040572		
8.19		-0.0406108		
8.2		-0.0406495		
8.21		-0.0406881		
8.22		-0.0407266		
8.23		-0.040765		
8.24		-0.0408034		
8.25		-0.0408416		
8.26		-0.0408798		
8.27		-0.0409179		
8.28		-0.0409559		
8.29		-0.0409939		
8.3		-0.0410317		
8.31		-0.0410695		
8.32		-0.0411072		
8.33		-0.0411448		
8.34		-0.0411823		
8.35		-0.0412197		
8.36		-0.0412571		
8.37		-0.0412943		
8.38		-0.0413315		
8.39		-0.0413686		
8.4		-0.0414057		
8.41		-0.0414426		
8.42		-0.0414795		
8.43		-0.0415163		
8.44		-0.041553		
8.45		-0.0415896		
8.46		-0.0416261		
8.47		-0.0416626		
8.48		-0.041699		
8.49		-0.0417353		
8.5		-0.0417715		
8.51		-0.0418076		
8.52		-0.0418437		
8.53		-0.0418797		
8.54		-0.0419156		
8.55		-0.0419514		
8.56		-0.0419871		
8.57		-0.0420228		
8.58		-0.0420584		
8.59		-0.0420939		
8.6		-0.0421293		
8.61		-0.0421646		
8.62		-0.0421999		
8.63		-0.0422351		
8.64		-0.0422702		
8.65		-0.0423053		
8.66		-0.0423402		
8.67		-0.0423751		
8.68		-0.0424099		
8.69		-0.0424446		
8.7		-0.0424793		
8.71		-0.0425138		
8.72		-0.0425483		
8.73		-0.0425827		
8.74		-0.0426171		
8.75		-0.0426513		
8.76		-0.0426855		
8.77		-0.0427196		
8.78		-0.0427536		
8.79		-0.0427876		
8.8		-0.0428215		
8.81		-0.0428553		
8.82		-0.042889		
8.83		-0.0429227		
8.84		-0.0429562		
8.85		-0.0429897		
8.86		-0.0430232		
8.87		-0.0430565		
8.88		-0.0430898		
8.89		-0.043123		
8.9		-0.0431561		
8.91		-0.0431892		
8.92		-0.0432221		
8.93		-0.043255		
8.94		-0.0432879		
8.95		-0.0433206		
8.96		-0.0433533		
8.97		-0.0433859		
8.98		-0.0434184		
8.99		-0.0434509		
9		-0.0434833		
9.01		-0.0435156		
9.02		-0.0435478		
9.03		-0.04358		
9.04		-0.0436121		
9.05		-0.0436441		
9.06		-0.043676		
9.07		-0.0437079		
9.08		-0.0437397		
9.09		-0.0437714		
9.1		-0.0438031		
9.11		-0.0438347		
9.12		-0.0438662		
9.13		-0.0438976		
9.14		-0.043929		
9.15		-0.0439603		
9.16		-0.0439915		
9.17		-0.0440227		
9.18		-0.0440538		
9.19		-0.0440848		
9.2		-0.0441157		
9.21		-0.0441466		
9.22		-0.0441774		
9.23		-0.0442082		
9.24		-0.0442388		
9.25		-0.0442694		
9.26		-0.0442999		
9.27		-0.0443304		
9.28		-0.0443608		
9.29		-0.0443911		
9.3		-0.0444213		
9.31		-0.0444515		
9.32		-0.0444816		
9.33		-0.0445116		
9.34		-0.0445416		
9.35		-0.0445715		
9.36		-0.0446013		
9.37		-0.0446311		
9.38		-0.0446608		
9.39		-0.0446904		
9.4		-0.04472		
9.41		-0.0447495		
9.42		-0.0447789		
9.43		-0.0448082		
9.44		-0.0448375		
9.45		-0.0448667		
9.46		-0.0448959		
9.47		-0.044925		
9.48		-0.044954		
9.49		-0.0449829		
9.5		-0.0450118		
9.51		-0.0450406		
9.52		-0.0450694		
9.53		-0.045098		
9.54		-0.0451266		
9.55		-0.0451552		
9.56		-0.0451837		
9.57		-0.0452121		
9.58		-0.0452404		
9.59		-0.0452687		
9.6		-0.0452969		
9.61		-0.0453251		
9.62		-0.0453532		
9.63		-0.0453812		
9.64		-0.0454092		
9.65		-0.045437		
9.66		-0.0454649		
9.67		-0.0454926		
9.68		-0.0455203		
9.69		-0.045548		
9.7		-0.0455755		
9.71		-0.045603		
9.72		-0.0456305		
9.73		-0.0456578		
9.74		-0.0456851		
9.75		-0.0457124		
9.76		-0.0457396		
9.77		-0.0457667		
9.78		-0.0457937		
9.79		-0.0458207		
9.8		-0.0458477		
9.81		-0.0458745		
9.82		-0.0459013		
9.83		-0.0459281		
9.84		-0.0459548		
9.85		-0.0459814		
9.86		-0.0460079		
9.87		-0.0460344		
9.88		-0.0460608		
9.89		-0.0460872		
9.9		-0.0461135		
9.91		-0.0461397		
9.92		-0.0461659		
9.93		-0.046192		
9.94		-0.0462181		
9.95		-0.0462441		
9.96		-0.04627		
9.97		-0.0462959		
9.98		-0.0463217		
9.99		-0.0463474		
10		-0.0463731		
10.01		-0.0463988		
10.02		-0.0464243		
10.03		-0.0464498		
10.04		-0.0464753		
10.05		-0.0465007		
10.06		-0.046526		
10.07		-0.0465512		
10.08		-0.0465765		
10.09		-0.0466016		
10.1		-0.0466267		
10.11		-0.0466517		
10.12		-0.0466767		
10.13		-0.0467016		
10.14		-0.0467264		
10.15		-0.0467512		
10.16		-0.0467759		
10.17		-0.0468006		
10.18		-0.0468252		
10.19		-0.0468498		
10.2		-0.0468743		
10.21		-0.0468987		
10.22		-0.0469231		
10.23		-0.0469474		
10.24		-0.0469717		
10.25		-0.0469959		
10.26		-0.04702		
10.27		-0.0470441		
10.28		-0.0470681		
10.29		-0.0470921		
10.3		-0.047116		
10.31		-0.0471399		
10.32		-0.0471637		
10.33		-0.0471874		
10.34		-0.0472111		
10.35		-0.0472347		
10.36		-0.0472583		
10.37		-0.0472818		
10.38		-0.0473053		
10.39		-0.0473287		
10.4		-0.047352		
10.41		-0.0473753		
10.42		-0.0473985		
10.43		-0.0474217		
10.44		-0.0474448		
10.45		-0.0474679		
10.46		-0.0474909		
10.47		-0.0475139		
10.48		-0.0475368		
10.49		-0.0475596		
10.5		-0.0475824		
10.51		-0.0476051		
10.52		-0.0476278		
10.53		-0.0476504		
10.54		-0.047673		
10.55		-0.0476955		
10.56		-0.047718		
10.57		-0.0477404		
10.58		-0.0477627		
10.59		-0.047785		
10.6		-0.0478073		
10.61		-0.0478295		
10.62		-0.0478516		
10.63		-0.0478737		
10.64		-0.0478957		
10.65		-0.0479177		
10.66		-0.0479396		
10.67		-0.0479615		
10.68		-0.0479833		
10.69		-0.0480051		
10.7		-0.0480268		
10.71		-0.0480484		
10.72		-0.04807		
10.73		-0.0480916		
10.74		-0.0481131		
10.75		-0.0481345		
10.76		-0.0481559		
10.77		-0.0481772		
10.78		-0.0481985		
10.79		-0.0482198		
10.8		-0.0482409		
10.81		-0.0482621		
10.82		-0.0482831		
10.83		-0.0483042		
10.84		-0.0483251		
10.85		-0.0483461		
10.86		-0.0483669		
10.87		-0.0483878		
10.88		-0.0484085		
10.89		-0.0484293		
10.9		-0.0484499		
10.91		-0.0484705		
10.92		-0.0484911		
10.93		-0.0485116		
10.94		-0.0485321		
10.95		-0.0485525		
10.96		-0.0485729		
10.97		-0.0485932		
10.98		-0.0486135		
10.99		-0.0486337		
11		-0.0486538		
11.01		-0.048674		
11.02		-0.048694		
11.03		-0.048714		
