tau [fm]		pi [fm^-4]
0.25		173.339
0.26		165.961		
0.27		159.101		
0.28		152.706		
0.29		146.732		
0.3		141.137		
0.31		135.887		
0.32		130.952		
0.33		126.303		
0.34		121.917		
0.35		117.773		
0.36		113.851		
0.37		110.134		
0.38		106.607		
0.39		103.256		
0.4		100.068		
0.41		97.0325		
0.42		94.1386		
0.43		91.377		
0.44		88.7391		
0.45		86.2171		
0.46		83.8038		
0.47		81.4927		
0.48		79.2776		
0.49		77.153		
0.5		75.1136		
0.51		73.1548		
0.52		71.2721		
0.53		69.4613		
0.54		67.7187		
0.55		66.0408		
0.56		64.4241		
0.57		62.8657		
0.58		61.3626		
0.59		59.9121		
0.6		58.5118		
0.61		57.1592		
0.62		55.8521		
0.63		54.5885		
0.64		53.3663		
0.65		52.1838		
0.66		51.0391		
0.67		49.9307		
0.68		48.857		
0.69		47.8165		
0.7		46.8079		
0.71		45.8298		
0.72		44.8809		
0.73		43.9602		
0.74		43.0664		
0.75		42.1986		
0.76		41.3557		
0.77		40.5368		
0.78		39.741		
0.79		38.9673		
0.8		38.215		
0.81		37.4833		
0.82		36.7714		
0.83		36.0786		
0.84		35.4043		
0.85		34.7477		
0.86		34.1083		
0.87		33.4855		
0.88		32.8787		
0.89		32.2874		
0.9		31.7109		
0.91		31.1489		
0.92		30.6009		
0.93		30.0664		
0.94		29.545		
0.95		29.0361		
0.96		28.5396		
0.97		28.0549		
0.98		27.5816		
0.99		27.1195		
1		26.6682		
1.01		26.2273		
1.02		25.7965		
1.03		25.3756		
1.04		24.9642		
1.05		24.5621		
1.06		24.1689		
1.07		23.7845		
1.08		23.4085		
1.09		23.0407		
1.1		22.6809		
1.11		22.3289		
1.12		21.9844		
1.13		21.6472		
1.14		21.3172		
1.15		20.9941		
1.16		20.6777		
1.17		20.3679		
1.18		20.0645		
1.19		19.7673		
1.2		19.4761		
1.21		19.1908		
1.22		18.9112		
1.23		18.6372		
1.24		18.3687		
1.25		18.1054		
1.26		17.8473		
1.27		17.5942		
1.28		17.3461		
1.29		17.1027		
1.3		16.864		
1.31		16.6298		
1.32		16.4		
1.33		16.1746		
1.34		15.9534		
1.35		15.7363		
1.36		15.5232		
1.37		15.3141		
1.38		15.1088		
1.39		14.9072		
1.4		14.7093		
1.41		14.5149		
1.42		14.324		
1.43		14.1366		
1.44		13.9524		
1.45		13.7715		
1.46		13.5938		
1.47		13.4192		
1.48		13.2476		
1.49		13.079		
1.5		12.9133		
1.51		12.7504		
1.52		12.5903		
1.53		12.433		
1.54		12.2782		
1.55		12.1261		
1.56		11.9765		
1.57		11.8294		
1.58		11.6848		
1.59		11.5425		
1.6		11.4026		
1.61		11.265		
1.62		11.1295		
1.63		10.9963		
1.64		10.8653		
1.65		10.7363		
1.66		10.6094		
1.67		10.4845		
1.68		10.3616		
1.69		10.2406		
1.7		10.1216		
1.71		10.0044		
1.72		9.88898		
1.73		9.77539		
1.74		9.66354		
1.75		9.55342		
1.76		9.44499		
1.77		9.3382		
1.78		9.23304		
1.79		9.12947		
1.8		9.02746		
1.81		8.92698		
1.82		8.828		
1.83		8.7305		
1.84		8.63443		
1.85		8.53979		
1.86		8.44654		
1.87		8.35466		
1.88		8.26411		
1.89		8.17489		
1.9		8.08695		
1.91		8.00028		
1.92		7.91486		
1.93		7.83067		
1.94		7.74767		
1.95		7.66585		
1.96		7.5852		
1.97		7.50568		
1.98		7.42728		
1.99		7.34997		
2		7.27375		
2.01		7.19858		
2.02		7.12446		
2.03		7.05135		
2.04		6.97926		
2.05		6.90815		
2.06		6.83802		
2.07		6.76884		
2.08		6.70059		
2.09		6.63327		
2.1		6.56686		
2.11		6.50134		
2.12		6.4367		
2.13		6.37291		
2.14		6.30998		
2.15		6.24788		
2.16		6.1866		
2.17		6.12612		
2.18		6.06644		
2.19		6.00754		
2.2		5.94941		
2.21		5.89203		
2.22		5.83539		
2.23		5.77948		
2.24		5.7243		
2.25		5.66982		
2.26		5.61603		
2.27		5.56294		
2.28		5.51051		
2.29		5.45875		
2.3		5.40764		
2.31		5.35718		
2.32		5.30734		
2.33		5.25813		
2.34		5.20954		
2.35		5.16154		
2.36		5.11414		
2.37		5.06733		
2.38		5.02109		
2.39		4.97542		
2.4		4.93031		
2.41		4.88575		
2.42		4.84172		
2.43		4.79824		
2.44		4.75528		
2.45		4.71283		
2.46		4.6709		
2.47		4.62947		
2.48		4.58853		
2.49		4.54808		
2.5		4.50811		
2.51		4.46861		
2.52		4.42958		
2.53		4.39101		
2.54		4.3529		
2.55		4.31522		
2.56		4.27799		
2.57		4.24119		
2.58		4.20482		
2.59		4.16887		
2.6		4.13333		
2.61		4.0982		
2.62		4.06348		
2.63		4.02915		
2.64		3.99521		
2.65		3.96166		
2.66		3.92849		
2.67		3.89569		
2.68		3.86327		
2.69		3.83121		
2.7		3.79951		
2.71		3.76816		
2.72		3.73716		
2.73		3.70651		
2.74		3.6762		
2.75		3.64622		
2.76		3.61658		
2.77		3.58726		
2.78		3.55826		
2.79		3.52958		
2.8		3.50121		
2.81		3.47315		
2.82		3.4454		
2.83		3.41795		
2.84		3.39079		
2.85		3.36393		
2.86		3.33735		
2.87		3.31106		
2.88		3.28505		
2.89		3.25932		
2.9		3.23386		
2.91		3.20867		
2.92		3.18375		
2.93		3.15909		
2.94		3.13469		
2.95		3.11054		
2.96		3.08665		
2.97		3.06301		
2.98		3.03961		
2.99		3.01646		
3		2.99355		
3.01		2.97087		
3.02		2.94843		
3.03		2.92622		
3.04		2.90423		
3.05		2.88247		
3.06		2.86094		
3.07		2.83962		
3.08		2.81852		
3.09		2.79763		
3.1		2.77695		
3.11		2.75649		
3.12		2.73622		
3.13		2.71616		
3.14		2.69631		
3.15		2.67665		
3.16		2.65718		
3.17		2.63791		
3.18		2.61883		
3.19		2.59994		
3.2		2.58123		
3.21		2.56271		
3.22		2.54437		
3.23		2.52621		
3.24		2.50822		
3.25		2.49042		
3.26		2.47278		
3.27		2.45532		
3.28		2.43802		
3.29		2.42089		
3.3		2.40393		
3.31		2.38713		
3.32		2.37049		
3.33		2.35401		
3.34		2.33768		
3.35		2.32151		
3.36		2.3055		
3.37		2.28963		
3.38		2.27392		
3.39		2.25835		
3.4		2.24293		
3.41		2.22766		
3.42		2.21253		
3.43		2.19753		
3.44		2.18268		
3.45		2.16797		
3.46		2.15339		
3.47		2.13895		
3.48		2.12464		
3.49		2.11046		
3.5		2.09641		
3.51		2.08249		
3.52		2.0687		
3.53		2.05504		
3.54		2.04149		
3.55		2.02807		
3.56		2.01478		
3.57		2.0016		
3.58		1.98854		
3.59		1.9756		
3.6		1.96278		
3.61		1.95007		
3.62		1.93747		
3.63		1.92498		
3.64		1.91261		
3.65		1.90035		
3.66		1.88819		
3.67		1.87614		
3.68		1.8642		
3.69		1.85237		
3.7		1.84063		
3.71		1.829		
3.72		1.81748		
3.73		1.80605		
3.74		1.79472		
3.75		1.78349		
3.76		1.77236		
3.77		1.76132		
3.78		1.75038		
3.79		1.73953		
3.8		1.72877		
3.81		1.71811		
3.82		1.70754		
3.83		1.69706		
3.84		1.68667		
3.85		1.67636		
3.86		1.66615		
3.87		1.65602		
3.88		1.64597		
3.89		1.63601		
3.9		1.62613		
3.91		1.61634		
3.92		1.60663		
3.93		1.597		
3.94		1.58745		
3.95		1.57797		
3.96		1.56858		
3.97		1.55927		
3.98		1.55003		
3.99		1.54086		
4		1.53178		
4.01		1.52276		
4.02		1.51383		
4.03		1.50496		
4.04		1.49617		
4.05		1.48744		
4.06		1.47879		
4.07		1.47021		
4.08		1.4617		
4.09		1.45326		
4.1		1.44488		
4.11		1.43657		
4.12		1.42833		
4.13		1.42015		
4.14		1.41204		
4.15		1.404		
4.16		1.39602		
4.17		1.3881		
4.18		1.38024		
4.19		1.37245		
4.2		1.36471		
4.21		1.35704		
4.22		1.34943		
4.23		1.34188		
4.24		1.33438		
4.25		1.32695		
4.26		1.31957		
4.27		1.31225		
4.28		1.30499		
4.29		1.29778		
4.3		1.29063		
4.31		1.28354		
4.32		1.2765		
4.33		1.26951		
4.34		1.26257		
4.35		1.25569		
4.36		1.24887		
4.37		1.24209		
4.38		1.23536		
4.39		1.22869		
4.4		1.22207		
4.41		1.21549		
4.42		1.20897		
4.43		1.20249		
4.44		1.19607		
4.45		1.18969		
4.46		1.18336		
4.47		1.17707		
4.48		1.17084		
4.49		1.16465		
4.5		1.1585		
4.51		1.1524		
4.52		1.14635		
4.53		1.14034		
4.54		1.13438		
4.55		1.12845		
4.56		1.12258		
4.57		1.11674		
4.58		1.11095		
4.59		1.1052		
4.6		1.09949		
4.61		1.09382		
4.62		1.0882		
4.63		1.08261		
4.64		1.07707		
4.65		1.07156		
4.66		1.0661		
4.67		1.06067		
4.68		1.05528		
4.69		1.04993		
4.7		1.04462		
4.71		1.03935		
4.72		1.03411		
4.73		1.02891		
4.74		1.02375		
4.75		1.01863		
4.76		1.01354		
4.77		1.00848		
4.78		1.00347		
4.79		0.998482		
4.8		0.993534		
4.81		0.988621		
4.82		0.983741		
4.83		0.978896		
4.84		0.974084		
4.85		0.969306		
4.86		0.96456		
4.87		0.959847		
4.88		0.955167		
4.89		0.950519		
4.9		0.945903		
4.91		0.941318		
4.92		0.936765		
4.93		0.932243		
4.94		0.927751		
4.95		0.92329		
4.96		0.91886		
4.97		0.914459		
4.98		0.910088		
4.99		0.905747		
5		0.901435		
5.01		0.897151		
5.02		0.892897		
5.03		0.888671		
5.04		0.884473		
5.05		0.880304		
5.06		0.876162		
5.07		0.872047		
5.08		0.86796		
5.09		0.8639		
5.1		0.859866		
5.11		0.85586		
5.12		0.85188		
5.13		0.847925		
5.14		0.843997		
5.15		0.840095		
5.16		0.836218		
5.17		0.832366		
5.18		0.82854		
5.19		0.824738		
5.2		0.820961		
5.21		0.817208		
5.22		0.81348		
5.23		0.809776		
5.24		0.806095		
5.25		0.802439		
5.26		0.798805		
5.27		0.795195		
5.28		0.791609		
5.29		0.788045		
5.3		0.784503		
5.31		0.780985		
5.32		0.777488		
5.33		0.774014		
5.34		0.770562		
5.35		0.767131		
5.36		0.763723		
5.37		0.760335		
5.38		0.756969		
5.39		0.753624		
5.4		0.7503		
5.41		0.746997		
5.42		0.743715		
5.43		0.740452		
5.44		0.737211		
5.45		0.733989		
5.46		0.730787		
5.47		0.727605		
5.48		0.724443		
5.49		0.7213		
5.5		0.718176		
5.51		0.715072		
5.52		0.711987		
5.53		0.70892		
5.54		0.705872		
5.55		0.702843		
5.56		0.699833		
5.57		0.69684		
5.58		0.693866		
5.59		0.69091		
5.6		0.687971		
5.61		0.685051		
5.62		0.682148		
5.63		0.679262		
5.64		0.676394		
5.65		0.673543		
5.66		0.670709		
5.67		0.667892		
5.68		0.665092		
5.69		0.662308		
5.7		0.659541		
5.71		0.656791		
5.72		0.654056		
5.73		0.651338		
5.74		0.648636		
5.75		0.64595		
5.76		0.64328		
5.77		0.640625		
5.78		0.637986		
5.79		0.635362		
5.8		0.632754		
5.81		0.630161		
5.82		0.627583		
5.83		0.62502		
5.84		0.622472		
5.85		0.619938		
5.86		0.617419		
5.87		0.614915		
5.88		0.612426		
5.89		0.60995		
5.9		0.607489		
5.91		0.605042		
5.92		0.602609		
5.93		0.60019		
5.94		0.597784		
5.95		0.595393		
5.96		0.593015		
5.97		0.59065		
5.98		0.588299		
5.99		0.585962		
6		0.583637		
6.01		0.581326		
6.02		0.579027		
6.03		0.576742		
6.04		0.574469		
6.05		0.572209		
6.06		0.569962		
6.07		0.567727		
6.08		0.565505		
6.09		0.563295		
6.1		0.561098		
6.11		0.558913		
6.12		0.556739		
6.13		0.554578		
6.14		0.552429		
6.15		0.550292		
6.16		0.548166		
6.17		0.546052		
6.18		0.54395		
6.19		0.541859		
6.2		0.53978		
6.21		0.537712		
6.22		0.535655		
6.23		0.53361		
6.24		0.531575		
6.25		0.529552		
6.26		0.52754		
6.27		0.525538		
6.28		0.523548		
6.29		0.521568		
6.3		0.519598		
6.31		0.51764		
6.32		0.515692		
6.33		0.513754		
6.34		0.511827		
6.35		0.50991		
6.36		0.508003		
6.37		0.506107		
6.38		0.50422		
6.39		0.502344		
6.4		0.500477		
6.41		0.49862		
6.42		0.496774		
6.43		0.494937		
6.44		0.493109		
6.45		0.491291		
6.46		0.489483		
6.47		0.487684		
6.48		0.485895		
6.49		0.484115		
6.5		0.482345		
6.51		0.480583		
6.52		0.478831		
6.53		0.477088		
6.54		0.475354		
6.55		0.473629		
6.56		0.471913		
6.57		0.470205		
6.58		0.468507		
6.59		0.466817		
6.6		0.465136		
6.61		0.463464		
6.62		0.4618		
6.63		0.460144		
6.64		0.458498		
6.65		0.456859		
6.66		0.455229		
6.67		0.453607		
6.68		0.451994		
6.69		0.450388		
6.7		0.448791		
6.71		0.447202		
6.72		0.445621		
6.73		0.444048		
6.74		0.442483		
6.75		0.440925		
6.76		0.439376		
6.77		0.437834		
6.78		0.4363		
6.79		0.434774		
6.8		0.433255		
6.81		0.431744		
6.82		0.43024		
6.83		0.428744		
6.84		0.427255		
6.85		0.425774		
6.86		0.4243		
6.87		0.422833		
6.88		0.421374		
6.89		0.419921		
6.9		0.418476		
6.91		0.417038		
6.92		0.415607		
6.93		0.414183		
6.94		0.412766		
6.95		0.411356		
6.96		0.409953		
6.97		0.408556		
6.98		0.407167		
6.99		0.405784		
7		0.404408		
7.01		0.403038		
7.02		0.401675		
7.03		0.400319		
7.04		0.398969		
7.05		0.397626		
7.06		0.396289		
7.07		0.394959		
7.08		0.393635		
7.09		0.392317		
7.1		0.391006		
7.11		0.389701		
7.12		0.388402		
7.13		0.387109		
7.14		0.385823		
7.15		0.384542		
7.16		0.383268		
7.17		0.382		
7.18		0.380737		
7.19		0.379481		
7.2		0.37823		
7.21		0.376986		
7.22		0.375747		
7.23		0.374514		
7.24		0.373287		
7.25		0.372066		
7.26		0.37085		
7.27		0.36964		
7.28		0.368436		
7.29		0.367237		
7.3		0.366044		
7.31		0.364856		
7.32		0.363674		
7.33		0.362497		
7.34		0.361326		
7.35		0.36016		
7.36		0.359		
7.37		0.357845		
7.38		0.356695		
7.39		0.355551		
7.4		0.354411		
7.41		0.353277		
7.42		0.352148		
7.43		0.351025		
7.44		0.349906		
7.45		0.348793		
7.46		0.347684		
7.47		0.346581		
7.48		0.345483		
7.49		0.344389		
7.5		0.343301		
7.51		0.342217		
7.52		0.341139		
7.53		0.340065		
7.54		0.338996		
7.55		0.337932		
7.56		0.336872		
7.57		0.335818		
7.58		0.334768		
7.59		0.333723		
7.6		0.332682		
7.61		0.331646		
7.62		0.330615		
7.63		0.329588		
7.64		0.328566		
7.65		0.327548		
7.66		0.326535		
7.67		0.325527		
7.68		0.324522		
7.69		0.323523		
7.7		0.322527		
7.71		0.321536		
7.72		0.32055		
7.73		0.319567		
7.74		0.318589		
7.75		0.317616		
7.76		0.316646		
7.77		0.315681		
7.78		0.31472		
7.79		0.313763		
7.8		0.31281		
7.81		0.311862		
7.82		0.310917		
7.83		0.309977		
7.84		0.309041		
7.85		0.308109		
7.86		0.30718		
7.87		0.306256		
7.88		0.305336		
7.89		0.30442		
7.9		0.303507		
7.91		0.302599		
7.92		0.301694		
7.93		0.300794		
7.94		0.299897		
7.95		0.299004		
7.96		0.298115		
7.97		0.297229		
7.98		0.296348		
7.99		0.29547		
8		0.294596		
8.01		0.293725		
8.02		0.292858		
8.03		0.291995		
8.04		0.291136		
8.05		0.29028		
8.06		0.289427		
8.07		0.288579		
8.08		0.287734		
8.09		0.286892		
8.1		0.286054		
8.11		0.285219		
8.12		0.284388		
8.13		0.283561		
8.14		0.282736		
8.15		0.281916		
8.16		0.281098		
8.17		0.280284		
8.18		0.279474		
8.19		0.278666		
8.2		0.277862		
8.21		0.277062		
8.22		0.276265		
8.23		0.275471		
8.24		0.27468		
8.25		0.273892		
8.26		0.273108		
8.27		0.272327		
8.28		0.271549		
8.29		0.270774		
8.3		0.270003		
8.31		0.269235		
8.32		0.268469		
8.33		0.267707		
8.34		0.266948		
8.35		0.266192		
8.36		0.265439		
8.37		0.264689		
8.38		0.263943		
8.39		0.263199		
8.4		0.262458		
8.41		0.26172		
8.42		0.260985		
8.43		0.260253		
8.44		0.259525		
8.45		0.258799		
8.46		0.258075		
8.47		0.257355		
8.48		0.256638		
8.49		0.255923		
8.5		0.255212		
8.51		0.254503		
8.52		0.253797		
8.53		0.253094		
8.54		0.252393		
8.55		0.251696		
8.56		0.251001		
8.57		0.250309		
8.58		0.249619		
8.59		0.248932		
8.6		0.248249		
8.61		0.247567		
8.62		0.246889		
8.63		0.246213		
8.64		0.245539		
8.65		0.244869		
8.66		0.244201		
8.67		0.243535		
8.68		0.242872		
8.69		0.242212		
8.7		0.241554		
8.71		0.240899		
8.72		0.240247		
8.73		0.239597		
8.74		0.238949		
8.75		0.238304		
8.76		0.237662		
8.77		0.237021		
8.78		0.236384		
8.79		0.235749		
8.8		0.235116		
8.81		0.234486		
8.82		0.233858		
8.83		0.233233		
8.84		0.232609		
8.85		0.231989		
8.86		0.231371		
8.87		0.230755		
8.88		0.230141		
8.89		0.22953		
8.9		0.228921		
8.91		0.228314		
8.92		0.22771		
8.93		0.227108		
8.94		0.226508		
8.95		0.225911		
8.96		0.225315		
8.97		0.224722		
8.98		0.224132		
8.99		0.223543		
9		0.222957		
9.01		0.222373		
9.02		0.221791		
9.03		0.221211		
9.04		0.220634		
9.05		0.220058		
9.06		0.219485		
9.07		0.218914		
9.08		0.218345		
9.09		0.217778		
9.1		0.217213		
9.11		0.216651		
9.12		0.21609		
9.13		0.215532		
9.14		0.214975		
9.15		0.214421		
9.16		0.213868		
9.17		0.213318		
9.18		0.21277		
9.19		0.212224		
9.2		0.211679		
9.21		0.211137		
9.22		0.210597		
9.23		0.210059		
9.24		0.209522		
9.25		0.208988		
9.26		0.208456		
9.27		0.207925		
9.28		0.207397		
9.29		0.20687		
9.3		0.206345		
9.31		0.205823		
9.32		0.205302		
9.33		0.204783		
9.34		0.204266		
9.35		0.20375		
9.36		0.203237		
9.37		0.202726		
9.38		0.202216		
9.39		0.201708		
9.4		0.201202		
9.41		0.200698		
9.42		0.200196		
9.43		0.199695		
9.44		0.199196		
9.45		0.198699		
9.46		0.198204		
9.47		0.19771		
9.48		0.197219		
9.49		0.196729		
9.5		0.196241		
9.51		0.195754		
9.52		0.195269		
9.53		0.194786		
9.54		0.194305		
9.55		0.193825		
9.56		0.193348		
9.57		0.192871		
9.58		0.192397		
9.59		0.191924		
9.6		0.191453		
9.61		0.190983		
9.62		0.190515		
9.63		0.190049		
9.64		0.189584		
9.65		0.189121		
9.66		0.18866		
9.67		0.1882		
9.68		0.187742		
9.69		0.187286		
9.7		0.186831		
9.71		0.186377		
9.72		0.185925		
9.73		0.185475		
9.74		0.185026		
9.75		0.184579		
9.76		0.184134		
9.77		0.18369		
9.78		0.183247		
9.79		0.182806		
9.8		0.182367		
9.81		0.181929		
9.82		0.181492		
9.83		0.181058		
9.84		0.180624		
9.85		0.180192		
9.86		0.179762		
9.87		0.179333		
9.88		0.178905		
9.89		0.178479		
9.9		0.178054		
9.91		0.177631		
9.92		0.17721		
9.93		0.176789		
9.94		0.17637		
9.95		0.175953		
9.96		0.175537		
9.97		0.175122		
9.98		0.174709		
9.99		0.174297		
10		0.173887		
10.01		0.173478		
10.02		0.17307		
10.03		0.172664		
10.04		0.172259		
10.05		0.171855		
10.06		0.171453		
10.07		0.171052		
10.08		0.170653		
10.09		0.170255		
10.1		0.169858		
10.11		0.169462		
10.12		0.169068		
10.13		0.168675		
10.14		0.168284		
10.15		0.167893		
10.16		0.167504		
10.17		0.167117		
10.18		0.16673		
10.19		0.166345		
10.2		0.165961		
10.21		0.165579		
10.22		0.165198		
10.23		0.164818		
10.24		0.164439		
10.25		0.164061		
10.26		0.163685		
10.27		0.16331		
10.28		0.162936		
10.29		0.162563		
10.3		0.162192		
10.31		0.161822		
10.32		0.161453		
10.33		0.161085		
10.34		0.160719		
10.35		0.160353		
10.36		0.159989		
10.37		0.159626		
10.38		0.159264		
10.39		0.158904		
10.4		0.158544		
10.41		0.158186		
10.42		0.157829		
10.43		0.157473		
10.44		0.157118		
10.45		0.156764		
10.46		0.156412		
10.47		0.15606		
10.48		0.15571		
10.49		0.155361		
10.5		0.155013		
10.51		0.154666		
10.52		0.15432		
10.53		0.153976		
10.54		0.153632		
10.55		0.15329		
10.56		0.152948		
10.57		0.152608		
10.58		0.152269		
10.59		0.151931		
10.6		0.151593		
10.61		0.151258		
10.62		0.150923		
10.63		0.150589		
10.64		0.150256		
10.65		0.149924		
10.66		0.149594		
10.67		0.149264		
10.68		0.148935		
10.69		0.148608		
10.7		0.148281		
10.71		0.147956		
10.72		0.147631		
10.73		0.147308		
10.74		0.146985		
10.75		0.146664		
10.76		0.146344		
10.77		0.146024		
10.78		0.145706		
10.79		0.145388		
10.8		0.145072		
10.81		0.144757		
10.82		0.144442		
10.83		0.144129		
10.84		0.143816		
10.85		0.143505		
10.86		0.143194		
10.87		0.142884		
10.88		0.142576		
10.89		0.142268		
10.9		0.141961		
10.91		0.141656		
10.92		0.141351		
10.93		0.141047		
10.94		0.140744		
10.95		0.140442		
10.96		0.140141		
10.97		0.139841		
10.98		0.139541		
10.99		0.139243		
11		0.138946		
11.01		0.138649		
11.02		0.138354		
11.03		0.138059		
11.04		0.137765		
11.05		0.137472		
11.06		0.13718		
11.07		0.136889		
11.08		0.136599		
11.09		0.13631		
11.1		0.136021		
11.11		0.135734		
11.12		0.135447		
11.13		0.135161		
11.14		0.134876		
11.15		0.134592		
11.16		0.134309		
11.17		0.134026		
11.18		0.133745		
11.19		0.133464		
11.2		0.133184		
11.21		0.132905		
11.22		0.132627		
11.23		0.13235		
11.24		0.132073		
11.25		0.131797		
11.26		0.131523		
11.27		0.131249		
11.28		0.130975		
11.29		0.130703		
11.3		0.130431		
11.31		0.130161		
11.32		0.129891		
11.33		0.129621		
11.34		0.129353		
11.35		0.129086		
11.36		0.128819		
11.37		0.128553		
11.38		0.128288		
11.39		0.128023		
11.4		0.12776		
11.41		0.127497		
11.42		0.127235		
11.43		0.126973		
11.44		0.126713		
11.45		0.126453		
11.46		0.126194		
11.47		0.125936		
11.48		0.125678		
11.49		0.125422		
11.5		0.125166		
11.51		0.12491		
11.52		0.124656		
11.53		0.124402		
11.54		0.124149		
11.55		0.123897		
11.56		0.123645		
11.57		0.123395		
11.58		0.123145		
11.59		0.122895		
11.6		0.122647		
11.61		0.122399		
11.62		0.122152		
11.63		0.121905		
11.64		0.121659		
11.65		0.121414		
11.66		0.12117		
11.67		0.120927		
11.68		0.120684		
11.69		0.120441		
11.7		0.1202		
11.71		0.119959		
11.72		0.119719		
11.73		0.11948		
11.74		0.119241		
11.75		0.119003		
11.76		0.118765		
11.77		0.118529		
11.78		0.118293		
11.79		0.118057		
11.8		0.117823		
11.81		0.117589		
11.82		0.117355		
11.83		0.117123		
11.84		0.116891		
11.85		0.116659		
11.86		0.116429		
11.87		0.116199		
11.88		0.115969		
11.89		0.11574		
11.9		0.115512		
11.91		0.115285		
11.92		0.115058		
11.93		0.114832		
11.94		0.114606		
11.95		0.114382		
11.96		0.114157		
11.97		0.113934		
11.98		0.113711		
11.99		0.113488		
12		0.113267		
12.01		0.113046		
12.02		0.112825		
12.03		0.112605		
12.04		0.112386		
12.05		0.112167		
12.06		0.111949		
12.07		0.111732		
12.08		0.111515		
12.09		0.111299		
12.1		0.111083		
12.11		0.110868		
12.12		0.110654		
12.13		0.11044		
12.14		0.110227		
12.15		0.110014		
12.16		0.109802		
12.17		0.10959		
12.18		0.10938		
12.19		0.109169		
12.2		0.10896		
12.21		0.10875		
12.22		0.108542		
12.23		0.108334		
12.24		0.108126		
12.25		0.10792		
12.26		0.107713		
12.27		0.107508		
12.28		0.107302		
12.29		0.107098		
