tau [fm]		pi [fm^-4]
0.25		360.262
0.26		344.837		
0.27		330.518		
0.28		317.19		
0.29		304.754		
0.3		293.122		
0.31		282.22		
0.32		271.982		
0.33		262.348		
0.34		253.267		
0.35		244.693		
0.36		236.586		
0.37		228.909		
0.38		221.628		
0.39		214.715		
0.4		208.142		
0.41		201.886		
0.42		195.925		
0.43		190.239		
0.44		184.809		
0.45		179.619		
0.46		174.655		
0.47		169.901		
0.48		165.346		
0.49		160.978		
0.5		156.785		
0.51		152.758		
0.52		148.888		
0.53		145.165		
0.54		141.583		
0.55		138.133		
0.56		134.809		
0.57		131.604		
0.58		128.512		
0.59		125.529		
0.6		122.648		
0.61		119.864		
0.62		117.173		
0.63		114.572		
0.64		112.055		
0.65		109.618		
0.66		107.259		
0.67		104.974		
0.68		102.76		
0.69		100.614		
0.7		98.5321		
0.71		96.5127		
0.72		94.5531		
0.73		92.6507		
0.74		90.8033		
0.75		89.0088		
0.76		87.2651		
0.77		85.5703		
0.78		83.9224		
0.79		82.3198		
0.8		80.7607		
0.81		79.2437		
0.82		77.767		
0.83		76.3294		
0.84		74.9294		
0.85		73.5657		
0.86		72.2371		
0.87		70.9422		
0.88		69.6801		
0.89		68.4496		
0.9		67.2496		
0.91		66.0791		
0.92		64.9372		
0.93		63.8229		
0.94		62.7353		
0.95		61.6737		
0.96		60.6371		
0.97		59.6249		
0.98		58.6361		
0.99		57.6702		
1		56.7264		
1.01		55.8041		
1.02		54.9026		
1.03		54.0213		
1.04		53.1596		
1.05		52.3169		
1.06		51.4927		
1.07		50.6864		
1.08		49.8976		
1.09		49.1257		
1.1		48.3703		
1.11		47.6309		
1.12		46.907		
1.13		46.1983		
1.14		45.5043		
1.15		44.8247		
1.16		44.1589		
1.17		43.5067		
1.18		42.8678		
1.19		42.2417		
1.2		41.6281		
1.21		41.0267		
1.22		40.4372		
1.23		39.8592		
1.24		39.2926		
1.25		38.7369		
1.26		38.192		
1.27		37.6575		
1.28		37.1332		
1.29		36.6188		
1.3		36.1142		
1.31		35.619		
1.32		35.133		
1.33		34.6561		
1.34		34.1879		
1.35		33.7284		
1.36		33.2772		
1.37		32.8342		
1.38		32.3992		
1.39		31.972		
1.4		31.5525		
1.41		31.1404		
1.42		30.7355		
1.43		30.3378		
1.44		29.9471		
1.45		29.5632		
1.46		29.1859		
1.47		28.8151		
1.48		28.4507		
1.49		28.0925		
1.5		27.7404		
1.51		27.3942		
1.52		27.0539		
1.53		26.7192		
1.54		26.3902		
1.55		26.0666		
1.56		25.7483		
1.57		25.4353		
1.58		25.1274		
1.59		24.8245		
1.6		24.5265		
1.61		24.2333		
1.62		23.9448		
1.63		23.661		
1.64		23.3817		
1.65		23.1067		
1.66		22.8362		
1.67		22.5699		
1.68		22.3077		
1.69		22.0497		
1.7		21.7956		
1.71		21.5455		
1.72		21.2992		
1.73		21.0567		
1.74		20.8179		
1.75		20.5828		
1.76		20.3511		
1.77		20.123		
1.78		19.8983		
1.79		19.677		
1.8		19.459		
1.81		19.2442		
1.82		19.0325		
1.83		18.824		
1.84		18.6186		
1.85		18.4161		
1.86		18.2166		
1.87		18.02		
1.88		17.8262		
1.89		17.6352		
1.9		17.4469		
1.91		17.2614		
1.92		17.0784		
1.93		16.8981		
1.94		16.7203		
1.95		16.545		
1.96		16.3722		
1.97		16.2018		
1.98		16.0337		
1.99		15.868		
2		15.7046		
2.01		15.5434		
2.02		15.3844		
2.03		15.2276		
2.04		15.073		
2.05		14.9204		
2.06		14.7699		
2.07		14.6214		
2.08		14.4749		
2.09		14.3304		
2.1		14.1878		
2.11		14.0471		
2.12		13.9083		
2.13		13.7713		
2.14		13.6361		
2.15		13.5027		
2.16		13.371		
2.17		13.2411		
2.18		13.1128		
2.19		12.9862		
2.2		12.8612		
2.21		12.7378		
2.22		12.6161		
2.23		12.4958		
2.24		12.3771		
2.25		12.2599		
2.26		12.1442		
2.27		12.03		
2.28		11.9172		
2.29		11.8058		
2.3		11.6958		
2.31		11.5871		
2.32		11.4799		
2.33		11.3739		
2.34		11.2692		
2.35		11.1659		
2.36		11.0638		
2.37		10.963		
2.38		10.8633		
2.39		10.7649		
2.4		10.6677		
2.41		10.5717		
2.42		10.4768		
2.43		10.3831		
2.44		10.2905		
2.45		10.199		
2.46		10.1086		
2.47		10.0192		
2.48		9.93093		
2.49		9.84369		
2.5		9.75747		
2.51		9.67227		
2.52		9.58806		
2.53		9.50484		
2.54		9.42258		
2.55		9.34128		
2.56		9.26092		
2.57		9.18149		
2.58		9.10297		
2.59		9.02535		
2.6		8.94863		
2.61		8.87277		
2.62		8.79778		
2.63		8.72364		
2.64		8.65034		
2.65		8.57787		
2.66		8.50621		
2.67		8.43536		
2.68		8.3653		
2.69		8.29602		
2.7		8.22751		
2.71		8.15976		
2.72		8.09277		
2.73		8.02651		
2.74		7.96098		
2.75		7.89617		
2.76		7.83208		
2.77		7.76868		
2.78		7.70597		
2.79		7.64395		
2.8		7.58259		
2.81		7.5219		
2.82		7.46187		
2.83		7.40248		
2.84		7.34372		
2.85		7.2856		
2.86		7.22809		
2.87		7.1712		
2.88		7.11491		
2.89		7.05922		
2.9		7.00412		
2.91		6.94959		
2.92		6.89564		
2.93		6.84226		
2.94		6.78943		
2.95		6.73715		
2.96		6.68542		
2.97		6.63422		
2.98		6.58356		
2.99		6.53341		
3		6.48378		
3.01		6.43467		
3.02		6.38605		
3.03		6.33793		
3.04		6.29031		
3.05		6.24316		
3.06		6.1965		
3.07		6.15031		
3.08		6.10458		
3.09		6.05931		
3.1		6.0145		
3.11		5.97014		
3.12		5.92622		
3.13		5.88274		
3.14		5.83969		
3.15		5.79707		
3.16		5.75487		
3.17		5.71309		
3.18		5.67172		
3.19		5.63076		
3.2		5.5902		
3.21		5.55003		
3.22		5.51026		
3.23		5.47087		
3.24		5.43187		
3.25		5.39324		
3.26		5.35499		
3.27		5.3171		
3.28		5.27958		
3.29		5.24243		
3.3		5.20562		
3.31		5.16917		
3.32		5.13307		
3.33		5.0973		
3.34		5.06188		
3.35		5.0268		
3.36		4.99204		
3.37		4.95761		
3.38		4.92351		
3.39		4.88973		
3.4		4.85626		
3.41		4.8231		
3.42		4.79025		
3.43		4.75771		
3.44		4.72547		
3.45		4.69353		
3.46		4.66188		
3.47		4.63053		
3.48		4.59946		
3.49		4.56868		
3.5		4.53817		
3.51		4.50795		
3.52		4.478		
3.53		4.44833		
3.54		4.41892		
3.55		4.38978		
3.56		4.3609		
3.57		4.33228		
3.58		4.30392		
3.59		4.27581		
3.6		4.24796		
3.61		4.22035		
3.62		4.19299		
3.63		4.16587		
3.64		4.139		
3.65		4.11236		
3.66		4.08595		
3.67		4.05978		
3.68		4.03384		
3.69		4.00812		
3.7		3.98263		
3.71		3.95736		
3.72		3.93232		
3.73		3.90749		
3.74		3.88287		
3.75		3.85847		
3.76		3.83428		
3.77		3.8103		
3.78		3.78652		
3.79		3.76295		
3.8		3.73958		
3.81		3.71641		
3.82		3.69343		
3.83		3.67066		
3.84		3.64807		
3.85		3.62568		
3.86		3.60348		
3.87		3.58146		
3.88		3.55963		
3.89		3.53798		
3.9		3.51651		
3.91		3.49523		
3.92		3.47412		
3.93		3.45318		
3.94		3.43242		
3.95		3.41184		
3.96		3.39142		
3.97		3.37117		
3.98		3.35109		
3.99		3.33117		
4		3.31142		
4.01		3.29183		
4.02		3.2724		
4.03		3.25312		
4.04		3.23401		
4.05		3.21505		
4.06		3.19624		
4.07		3.17758		
4.08		3.15908		
4.09		3.14072		
4.1		3.12252		
4.11		3.10445		
4.12		3.08654		
4.13		3.06876		
4.14		3.05113		
4.15		3.03364		
4.16		3.01628		
4.17		2.99907		
4.18		2.98199		
4.19		2.96504		
4.2		2.94823		
4.21		2.93155		
4.22		2.915		
4.23		2.89858		
4.24		2.88229		
4.25		2.86613		
4.26		2.85009		
4.27		2.83418		
4.28		2.81839		
4.29		2.80272		
4.3		2.78717		
4.31		2.77175		
4.32		2.75644		
4.33		2.74125		
4.34		2.72617		
4.35		2.71121		
4.36		2.69636		
4.37		2.68163		
4.38		2.66701		
4.39		2.6525		
4.4		2.6381		
4.41		2.62381		
4.42		2.60963		
4.43		2.59555		
4.44		2.58158		
4.45		2.56771		
4.46		2.55395		
4.47		2.54029		
4.48		2.52673		
4.49		2.51327		
4.5		2.49991		
4.51		2.48665		
4.52		2.47349		
4.53		2.46043		
4.54		2.44746		
4.55		2.43459		
4.56		2.42181		
4.57		2.40912		
4.58		2.39653		
4.59		2.38403		
4.6		2.37162		
4.61		2.3593		
4.62		2.34707		
4.63		2.33493		
4.64		2.32288		
4.65		2.31091		
4.66		2.29903		
4.67		2.28723		
4.68		2.27552		
4.69		2.2639		
4.7		2.25235		
4.71		2.24089		
4.72		2.22951		
4.73		2.21821		
4.74		2.20699		
4.75		2.19585		
4.76		2.18479		
4.77		2.1738		
4.78		2.1629		
4.79		2.15207		
4.8		2.14131		
4.81		2.13063		
4.82		2.12003		
4.83		2.1095		
4.84		2.09904		
4.85		2.08866		
4.86		2.07834		
4.87		2.0681		
4.88		2.05793		
4.89		2.04783		
4.9		2.0378		
4.91		2.02784		
4.92		2.01794		
4.93		2.00811		
4.94		1.99835		
4.95		1.98866		
4.96		1.97903		
4.97		1.96947		
4.98		1.95997		
4.99		1.95054		
5		1.94117		
5.01		1.93187		
5.02		1.92262		
5.03		1.91344		
5.04		1.90432		
5.05		1.89526		
5.06		1.88626		
5.07		1.87732		
5.08		1.86845		
5.09		1.85963		
5.1		1.85086		
5.11		1.84216		
5.12		1.83351		
5.13		1.82492		
5.14		1.81639		
5.15		1.80792		
5.16		1.79949		
5.17		1.79113		
5.18		1.78282		
5.19		1.77456		
5.2		1.76636		
5.21		1.75821		
5.22		1.75011		
5.23		1.74206		
5.24		1.73407		
5.25		1.72613		
5.26		1.71824		
5.27		1.7104		
5.28		1.70261		
5.29		1.69487		
5.3		1.68718		
5.31		1.67954		
5.32		1.67195		
5.33		1.66441		
5.34		1.65691		
5.35		1.64946		
5.36		1.64206		
5.37		1.63471		
5.38		1.6274		
5.39		1.62014		
5.4		1.61292		
5.41		1.60575		
5.42		1.59862		
5.43		1.59154		
5.44		1.5845		
5.45		1.57751		
5.46		1.57056		
5.47		1.56365		
5.48		1.55679		
5.49		1.54997		
5.5		1.54319		
5.51		1.53645		
5.52		1.52975		
5.53		1.5231		
5.54		1.51648		
5.55		1.50991		
5.56		1.50338		
5.57		1.49688		
5.58		1.49043		
5.59		1.48401		
5.6		1.47764		
5.61		1.4713		
5.62		1.465		
5.63		1.45874		
5.64		1.45252		
5.65		1.44633		
5.66		1.44018		
5.67		1.43407		
5.68		1.42799		
5.69		1.42196		
5.7		1.41595		
5.71		1.40999		
5.72		1.40405		
5.73		1.39816		
5.74		1.3923		
5.75		1.38647		
5.76		1.38068		
5.77		1.37492		
5.78		1.36919		
5.79		1.3635		
5.8		1.35785		
5.81		1.35222		
5.82		1.34663		
5.83		1.34107		
5.84		1.33555		
5.85		1.33005		
5.86		1.32459		
5.87		1.31916		
5.88		1.31376		
5.89		1.3084		
5.9		1.30306		
5.91		1.29775		
5.92		1.29248		
5.93		1.28723		
5.94		1.28202		
5.95		1.27683		
5.96		1.27168		
5.97		1.26655		
5.98		1.26146		
5.99		1.25639		
6		1.25135		
6.01		1.24634		
6.02		1.24136		
6.03		1.2364		
6.04		1.23148		
6.05		1.22658		
6.06		1.22171		
6.07		1.21687		
6.08		1.21205		
6.09		1.20726		
6.1		1.2025		
6.11		1.19776		
6.12		1.19305		
6.13		1.18837		
6.14		1.18371		
6.15		1.17908		
6.16		1.17448		
6.17		1.1699		
6.18		1.16534		
6.19		1.16081		
6.2		1.15631		
6.21		1.15183		
6.22		1.14737		
6.23		1.14294		
6.24		1.13853		
6.25		1.13415		
6.26		1.12979		
6.27		1.12546		
6.28		1.12115		
6.29		1.11686		
6.3		1.11259		
6.31		1.10835		
6.32		1.10413		
6.33		1.09993		
6.34		1.09576		
6.35		1.09161		
6.36		1.08748		
6.37		1.08337		
6.38		1.07929		
6.39		1.07523		
6.4		1.07118		
6.41		1.06716		
6.42		1.06317		
6.43		1.05919		
6.44		1.05523		
6.45		1.0513		
6.46		1.04738		
6.47		1.04349		
6.48		1.03962		
6.49		1.03576		
6.5		1.03193		
6.51		1.02812		
6.52		1.02432		
6.53		1.02055		
6.54		1.0168		
6.55		1.01306		
6.56		1.00935		
6.57		1.00566		
6.58		1.00198		
6.59		0.998324		
6.6		0.994686		
6.61		0.991067		
6.62		0.987467		
6.63		0.983885		
6.64		0.980322		
6.65		0.976777		
6.66		0.97325		
6.67		0.969741		
6.68		0.96625		
6.69		0.962777		
6.7		0.959322		
6.71		0.955884		
6.72		0.952464		
6.73		0.949061		
6.74		0.945675		
6.75		0.942307		
6.76		0.938955		
6.77		0.935621		
6.78		0.932303		
6.79		0.929002		
6.8		0.925717		
6.81		0.922449		
6.82		0.919197		
6.83		0.915962		
6.84		0.912743		
6.85		0.909539		
6.86		0.906352		
6.87		0.903181		
6.88		0.900025		
6.89		0.896885		
6.9		0.89376		
6.91		0.890651		
6.92		0.887558		
6.93		0.884479		
6.94		0.881416		
6.95		0.878368		
6.96		0.875334		
6.97		0.872316		
6.98		0.869312		
6.99		0.866323		
7		0.863349		
7.01		0.860389		
7.02		0.857443		
7.03		0.854512		
7.04		0.851595		
7.05		0.848692		
7.06		0.845803		
7.07		0.842928		
7.08		0.840067		
7.09		0.83722		
7.1		0.834387		
7.11		0.831567		
7.12		0.82876		
7.13		0.825967		
7.14		0.823188		
7.15		0.820421		
7.16		0.817668		
7.17		0.814928		
7.18		0.812201		
7.19		0.809487		
7.2		0.806786		
7.21		0.804098		
7.22		0.801422		
7.23		0.798759		
7.24		0.796109		
7.25		0.793471		
7.26		0.790845		
7.27		0.788232		
7.28		0.785631		
7.29		0.783043		
7.3		0.780466		
7.31		0.777901		
7.32		0.775349		
7.33		0.772808		
7.34		0.770279		
7.35		0.767762		
7.36		0.765256		
7.37		0.762762		
7.38		0.76028		
7.39		0.757809		
7.4		0.75535		
7.41		0.752902		
7.42		0.750465		
7.43		0.748039		
7.44		0.745625		
7.45		0.743221		
7.46		0.740829		
7.47		0.738447		
7.48		0.736076		
7.49		0.733717		
7.5		0.731368		
7.51		0.729029		
7.52		0.726701		
7.53		0.724384		
7.54		0.722077		
7.55		0.719781		
7.56		0.717495		
7.57		0.715219		
7.58		0.712954		
7.59		0.710699		
7.6		0.708454		
7.61		0.706219		
7.62		0.703994		
7.63		0.701779		
7.64		0.699574		
7.65		0.697378		
7.66		0.695193		
7.67		0.693017		
7.68		0.690851		
7.69		0.688695		
7.7		0.686548		
7.71		0.68441		
7.72		0.682282		
7.73		0.680164		
7.74		0.678055		
7.75		0.675955		
7.76		0.673864		
7.77		0.671783		
7.78		0.66971		
7.79		0.667647		
7.8		0.665593		
7.81		0.663547		
7.82		0.661511		
7.83		0.659484		
7.84		0.657465		
7.85		0.655455		
7.86		0.653454		
7.87		0.651462		
7.88		0.649478		
7.89		0.647503		
7.9		0.645536		
7.91		0.643578		
7.92		0.641628		
7.93		0.639686		
7.94		0.637753		
7.95		0.635829		
7.96		0.633912		
7.97		0.632004		
7.98		0.630104		
7.99		0.628212		
8		0.626328		
8.01		0.624452		
8.02		0.622584		
8.03		0.620724		
8.04		0.618872		
8.05		0.617028		
8.06		0.615191		
8.07		0.613363		
8.08		0.611542		
8.09		0.609729		
8.1		0.607923		
8.11		0.606125		
8.12		0.604335		
8.13		0.602552		
8.14		0.600776		
8.15		0.599008		
8.16		0.597248		
8.17		0.595494		
8.18		0.593748		
8.19		0.59201		
8.2		0.590278		
8.21		0.588554		
8.22		0.586837		
8.23		0.585127		
8.24		0.583424		
8.25		0.581728		
8.26		0.580039		
8.27		0.578357		
8.28		0.576682		
8.29		0.575014		
8.3		0.573353		
8.31		0.571699		
8.32		0.570051		
8.33		0.56841		
8.34		0.566776		
8.35		0.565149		
8.36		0.563528		
8.37		0.561914		
8.38		0.560306		
8.39		0.558705		
8.4		0.55711		
8.41		0.555522		
8.42		0.55394		
8.43		0.552365		
8.44		0.550796		
8.45		0.549234		
8.46		0.547677		
8.47		0.546127		
8.48		0.544583		
8.49		0.543046		
8.5		0.541514		
8.51		0.539989		
8.52		0.53847		
8.53		0.536957		
8.54		0.53545		
8.55		0.533949		
8.56		0.532454		
8.57		0.530964		
8.58		0.529481		
8.59		0.528004		
8.6		0.526533		
8.61		0.525067		
8.62		0.523607		
8.63		0.522153		
8.64		0.520705		
8.65		0.519262		
8.66		0.517825		
8.67		0.516394		
8.68		0.514968		
8.69		0.513548		
8.7		0.512134		
8.71		0.510725		
8.72		0.509321		
8.73		0.507923		
8.74		0.506531		
8.75		0.505144		
8.76		0.503762		
8.77		0.502386		
8.78		0.501015		
8.79		0.499649		
8.8		0.498289		
8.81		0.496934		
8.82		0.495584		
8.83		0.494239		
8.84		0.4929		
8.85		0.491565		
8.86		0.490236		
8.87		0.488912		
8.88		0.487593		
8.89		0.486279		
8.9		0.48497		
8.91		0.483666		
8.92		0.482368		
8.93		0.481074		
8.94		0.479785		
8.95		0.478501		
8.96		0.477221		
8.97		0.475947		
8.98		0.474678		
8.99		0.473413		
9		0.472153		
9.01		0.470898		
9.02		0.469647		
9.03		0.468402		
9.04		0.467161		
9.05		0.465925		
9.06		0.464693		
9.07		0.463466		
9.08		0.462243		
9.09		0.461026		
9.1		0.459812		
9.11		0.458604		
9.12		0.457399		
9.13		0.4562		
9.14		0.455004		
9.15		0.453814		
9.16		0.452627		
9.17		0.451445		
9.18		0.450268		
9.19		0.449095		
9.2		0.447926		
9.21		0.446761		
9.22		0.445601		
9.23		0.444445		
9.24		0.443293		
9.25		0.442146		
9.26		0.441003		
9.27		0.439864		
9.28		0.438729		
9.29		0.437598		
9.3		0.436472		
9.31		0.435349		
9.32		0.434231		
9.33		0.433117		
9.34		0.432007		
9.35		0.430901		
9.36		0.429799		
9.37		0.4287		
9.38		0.427606		
9.39		0.426516		
9.4		0.42543		
9.41		0.424348		
9.42		0.42327		
9.43		0.422195		
9.44		0.421125		
9.45		0.420058		
9.46		0.418995		
9.47		0.417936		
9.48		0.416881		
9.49		0.41583		
9.5		0.414782		
9.51		0.413738		
9.52		0.412698		
9.53		0.411661		
9.54		0.410629		
9.55		0.4096		
9.56		0.408574		
9.57		0.407553		
9.58		0.406534		
9.59		0.40552		
9.6		0.404509		
9.61		0.403502		
9.62		0.402498		
9.63		0.401498		
9.64		0.400501		
9.65		0.399508		
9.66		0.398518		
9.67		0.397532		
9.68		0.39655		
9.69		0.39557		
9.7		0.394595		
9.71		0.393622		
9.72		0.392653		
9.73		0.391688		
9.74		0.390726		
9.75		0.389767		
9.76		0.388811		
9.77		0.387859		
9.78		0.38691		
9.79		0.385965		
9.8		0.385022		
9.81		0.384084		
9.82		0.383148		
9.83		0.382215		
9.84		0.381286		
9.85		0.38036		
9.86		0.379437		
9.87		0.378518		
9.88		0.377601		
9.89		0.376688		
9.9		0.375778		
9.91		0.37487		
9.92		0.373967		
9.93		0.373066		
9.94		0.372168		
9.95		0.371273		
9.96		0.370382		
9.97		0.369493		
9.98		0.368608		
9.99		0.367725		
10		0.366845		
10.01		0.365969		
10.02		0.365095		
10.03		0.364225		
10.04		0.363357		
10.05		0.362492		
10.06		0.361631		
10.07		0.360772		
10.08		0.359916		
10.09		0.359063		
10.1		0.358213		
10.11		0.357365		
10.12		0.356521		
10.13		0.355679		
10.14		0.35484		
10.15		0.354004		
10.16		0.353171		
10.17		0.352341		
10.18		0.351513		
10.19		0.350688		
10.2		0.349866		
10.21		0.349047		
10.22		0.34823		
10.23		0.347416		
10.24		0.346605		
10.25		0.345796		
10.26		0.344991		
10.27		0.344187		
10.28		0.343387		
10.29		0.342589		
10.3		0.341794		
10.31		0.341001		
10.32		0.340211		
10.33		0.339424		
10.34		0.338639		
10.35		0.337857		
10.36		0.337077		
10.37		0.3363		
10.38		0.335526		
10.39		0.334754		
10.4		0.333984		
10.41		0.333217		
10.42		0.332453		
10.43		0.331691		
10.44		0.330931		
10.45		0.330174		
10.46		0.32942		
10.47		0.328668		
10.48		0.327918		
10.49		0.327171		
10.5		0.326426		
10.51		0.325684		
10.52		0.324944		
10.53		0.324206		
10.54		0.323471		
10.55		0.322738		
10.56		0.322008		
10.57		0.32128		
10.58		0.320554		
10.59		0.31983		
10.6		0.319109		
10.61		0.31839		
10.62		0.317674		
10.63		0.31696		
10.64		0.316248		
10.65		0.315538		
10.66		0.314831		
10.67		0.314126		
10.68		0.313423		
10.69		0.312722		
10.7		0.312024		
10.71		0.311328		
10.72		0.310634		
10.73		0.309942		
10.74		0.309252		
10.75		0.308565		
10.76		0.30788		
10.77		0.307196		
10.78		0.306516		
10.79		0.305837		
10.8		0.30516		
10.81		0.304486		
10.82		0.303813		
10.83		0.303143		
10.84		0.302475		
10.85		0.301809		
10.86		0.301145		
10.87		0.300483		
10.88		0.299823		
10.89		0.299165		
10.9		0.29851		
10.91		0.297856		
10.92		0.297204		
10.93		0.296555		
10.94		0.295907		
10.95		0.295262		
10.96		0.294618		
10.97		0.293977		
10.98		0.293337		
10.99		0.292699		
11		0.292064		
11.01		0.29143		
11.02		0.290798		
11.03		0.290169		
11.04		0.289541		
11.05		0.288915		
11.06		0.288291		
11.07		0.287669		
11.08		0.287049		
11.09		0.286431		
11.1		0.285814		
11.11		0.2852		
11.12		0.284587		
11.13		0.283977		
11.14		0.283368		
11.15		0.282761		
11.16		0.282156		
11.17		0.281552		
11.18		0.280951		
11.19		0.280351		
11.2		0.279753		
11.21		0.279157		
11.22		0.278563		
11.23		0.277971		
11.24		0.27738		
11.25		0.276792		
11.26		0.276205		
11.27		0.275619		
11.28		0.275036		
11.29		0.274454		
11.3		0.273874		
11.31		0.273296		
11.32		0.272719		
11.33		0.272145		
11.34		0.271572		
11.35		0.271		
11.36		0.270431		
11.37		0.269863		
11.38		0.269297		
11.39		0.268732		
11.4		0.268169		
11.41		0.267608		
11.42		0.267049		
11.43		0.266491		
11.44		0.265935		
11.45		0.26538		
11.46		0.264827		
11.47		0.264276		
11.48		0.263727		
11.49		0.263179		
11.5		0.262632		
11.51		0.262088		
11.52		0.261544		
11.53		0.261003		
11.54		0.260463		
11.55		0.259925		
11.56		0.259388		
11.57		0.258853		
11.58		0.258319		
11.59		0.257787		
11.6		0.257257		
11.61		0.256728		
11.62		0.2562		
11.63		0.255675		
11.64		0.25515		
11.65		0.254628		
11.66		0.254106		
11.67		0.253587		
11.68		0.253068		
11.69		0.252552		
11.7		0.252036		
11.71		0.251523		
11.72		0.251011		
11.73		0.2505		
11.74		0.249991		
11.75		0.249483		
11.76		0.248977		
11.77		0.248472		
11.78		0.247968		
11.79		0.247466		
11.8		0.246966		
11.81		0.246467		
11.82		0.245969		
11.83		0.245473		
11.84		0.244978		
11.85		0.244485		
11.86		0.243993		
11.87		0.243503		
11.88		0.243014		
11.89		0.242526		
11.9		0.24204		
11.91		0.241555		
11.92		0.241071		
11.93		0.240589		
11.94		0.240108		
11.95		0.239629		
11.96		0.239151		
11.97		0.238674		
11.98		0.238199		
11.99		0.237725		
12		0.237252		
12.01		0.236781		
12.02		0.236311		
12.03		0.235842		
12.04		0.235375		
12.05		0.234909		
12.06		0.234444		
12.07		0.233981		
12.08		0.233519		
12.09		0.233058		
12.1		0.232598		
12.11		0.23214		
12.12		0.231683		
12.13		0.231228		
12.14		0.230773		
12.15		0.23032		
12.16		0.229868		
12.17		0.229418		
12.18		0.228969		
12.19		0.228521		
12.2		0.228074		
12.21		0.227628		
12.22		0.227184		
12.23		0.226741		
12.24		0.226299		
12.25		0.225858		
12.26		0.225419		
12.27		0.224981		
12.28		0.224544		
12.29		0.224108		
12.3		0.223674		
12.31		0.22324		
12.32		0.222808		
12.33		0.222377		
12.34		0.221947		
12.35		0.221519		
12.36		0.221091		
12.37		0.220665		
12.38		0.22024		
